Wavelength (nm),Normalized
294.83,4.4214466224229234e-05
294.89,4.421445545874352e-05
294.94,4.421444821219649e-05
295.0,4.421444448458812e-05
295.06,4.421444427591842e-05
295.11,4.4214447586187386e-05
295.17,4.421443097303338e-05
295.23,4.421435164307835e-05
295.28,4.4214032085735186e-05
295.34,4.4213240151923255e-05
295.4,4.421005254622369e-05
295.45,4.419944402036466e-05
295.51,4.4167449763501066e-05
295.57,4.411015639012583e-05
295.62,4.3927987077667014e-05
295.68,4.347120620030837e-05
295.74,4.2908820882648304e-05
295.8,4.140003194640497e-05
295.85,3.858539872168352e-05
295.91,3.815820218727285e-05
295.97,3.728301562825219e-05
296.02,4.184891336099208e-05
296.08,8.209466955807368e-05
296.14,0.0001594967621885
296.19,0.0003212492289104
296.25,0.0006796562193308
296.31,0.0012550550905745
296.36,0.0021622055060619
296.42,0.0035586915949232
296.48,0.005418360544751
296.53,0.0077579031793847
296.59,0.0105031395197872
296.65,0.0134386858674937
296.7,0.0162661715259769
296.76,0.0186677655607968
296.82,0.0202872359661056
296.87,0.0209124268933365
296.93,0.0204753986446938
296.99,0.0190160007956551
297.05,0.0167255130227182
297.1,0.0139513591699016
297.16,0.0110128129616953
297.22,0.0082187977467619
297.27,0.0057997345242981
297.33,0.003850172326135
297.39,0.0023695881480219
297.44,0.0013909878836829
297.5,0.0007619059945332
297.56,0.0003659882970156
297.61,0.0001820903515363
297.67,9.217988057332336e-05
297.73,4.483013958448275e-05
297.78,3.7944068487823466e-05
297.84,3.800668334752171e-05
297.9,3.807596654855584e-05
297.95,4.108268570942533e-05
298.01,4.273550074356323e-05
298.07,4.335839299088789e-05
298.12,4.388088712066267e-05
298.18,4.4092110729083506e-05
298.24,4.415903197013004e-05
298.3,4.4196842479959786e-05
298.35,4.4209177893986274e-05
298.41,4.421247015667114e-05
298.47,4.42139253849484e-05
298.52,4.4214324218482045e-05
298.58,4.4214424387578296e-05
298.64,4.4214445564000355e-05
298.69,4.421445266581064e-05
298.75,4.4214454148101626e-05
298.81,4.421445441185144e-05
298.86,4.4214454485654766e-05
298.92,4.421445449847496e-05
298.98,4.42144545003968e-05
299.03,4.421445450084951e-05
299.09,4.4214454500915474e-05
299.15,4.421445450092401e-05
299.2,4.421445450092571e-05
299.26,4.421445450092567e-05
299.32,4.421445450092564e-05
299.37,4.42144545009256e-05
299.43,4.421445450092557e-05
299.49,4.4214454500925536e-05
299.55,4.421445450092551e-05
299.6,4.421445450092547e-05
299.66,4.4214454500925435e-05
299.72,4.42144545009254e-05
299.77,4.421445450092537e-05
299.83,4.421445450092533e-05
299.89,4.4214454500925306e-05
299.94,4.421445450092527e-05
300.0,4.421445450092524e-05
300.06,4.42144545009252e-05
300.11,4.421445450092517e-05
300.17,4.421445450092514e-05
300.23,4.42144545009251e-05
300.28,4.421445450092507e-05
300.34,4.4214454500925035e-05
300.4,4.4214454500925e-05
300.45,4.421445450092497e-05
300.51,4.421445450092493e-05
300.57,4.42144545009249e-05
300.62,4.4214454500924866e-05
300.68,4.421445450092483e-05
300.74,4.42144545009248e-05
300.8,4.421445450092477e-05
300.85,4.421445450092474e-05
300.91,4.42144545009247e-05
300.97,4.421445450092466e-05
301.02,4.421445450092463e-05
301.08,4.4214454500924595e-05
301.14,4.421445450092457e-05
301.19,4.4214454500924534e-05
301.25,4.42144545009245e-05
301.31,4.4214454500924466e-05
301.36,4.421445450092369e-05
301.42,4.421445450092013e-05
301.48,4.421445450089369e-05
301.53,4.421445450071708e-05
301.59,4.4214454499983114e-05
301.65,4.4214454495177354e-05
301.7,4.4214454467990544e-05
301.76,4.421445432496937e-05
301.82,4.421445385119784e-05
301.87,4.4214451365679886e-05
301.93,4.421444026943095e-05
301.99,4.4214409432684785e-05
302.05,4.421427203063066e-05
302.1,4.421375876614613e-05
302.16,4.421258617573013e-05
302.22,4.4208147925397017e-05
302.27,4.419435931098381e-05
302.33,4.416942317397423e-05
302.39,4.408926223209352e-05
302.44,4.388538698815167e-05
302.5,4.3626358357845e-05
302.56,4.291645975370952e-05
302.61,4.1534763506801936e-05
302.67,4.109402997903441e-05
302.73,4.002254920527431e-05
302.78,4.06137123434446e-05
302.84,5.726271315643663e-05
302.9,8.942640518748337e-05
302.95,0.0001600442281587
303.01,0.0003070529233559
303.07,0.0006138000817877
303.12,0.0010925407049978
303.18,0.0018214240960128
303.24,0.0028984308699445
303.3,0.0042903529996115
303.35,0.005994060344858
303.41,0.0079386364891694
303.47,0.0099489652901218
303.52,0.0118395888004936
303.58,0.0133631779502084
303.64,0.0143851218561145
303.69,0.0147067354717944
303.75,0.0142784553877712
303.81,0.0132286099222068
303.86,0.0116296071365367
303.92,0.0097034709918671
303.98,0.0076985705099144
304.03,0.0057901503985527
304.09,0.0041199300675141
304.15,0.0027535296081755
304.2,0.0017537931838578
304.26,0.0010517623727096
304.32,0.0005742092657058
304.37,0.0003117029242633
304.43,0.0001647353414401
304.49,8.02951326691141e-05
304.55,5.2929449519979475e-05
304.6,4.281701919905948e-05
304.66,3.797662808801528e-05
304.72,4.012902884230569e-05
304.77,4.202284095582894e-05
304.83,4.312935089951187e-05
304.89,4.3551467731282894e-05
304.94,4.394594502583961e-05
305.0,4.411174502993626e-05
305.06,4.4165791776396585e-05
305.11,4.419832789215995e-05
305.17,4.4209405082458994e-05
305.23,4.4212476529490065e-05
305.28,4.421390798154899e-05
305.34,4.4214312147989227e-05
305.4,4.4214407377933064e-05
305.45,4.4214443580698005e-05
305.51,4.421445211914522e-05
305.57,4.421445382232009e-05
305.62,4.421445433651145e-05
305.68,4.421445429978835e-05
305.74,4.421445384622286e-05
305.8,4.421445139808973e-05
305.85,4.42144405427619e-05
305.91,4.421441060452951e-05
305.97,4.421427783675642e-05
306.02,4.421378375103407e-05
306.08,4.421265748332815e-05
306.14,4.420839840726306e-05
306.19,4.419514415042646e-05
306.25,4.4171119412518225e-05
306.31,4.409340228989734e-05
306.36,4.389434724519407e-05
306.42,4.363692395452125e-05
306.48,4.2923315338338146e-05
306.53,4.149979292444039e-05
306.59,4.091773593138557e-05
306.65,3.947124504214447e-05
306.7,3.917444212985456e-05
306.76,4.589264646126331e-05
306.82,8.648603449269116e-05
306.87,0.0001622849611025
306.93,0.0003131586965667
306.99,0.0006325487242198
307.05,0.0011344803832809
307.1,0.00191331496574
307.16,0.0031010723038098
307.22,0.0046711464347267
307.27,0.00665050496158
307.33,0.0089951279313954
307.39,0.0115371200088225
307.44,0.0140457919214257
307.5,0.0162363386275588
307.56,0.0179103836378842
307.61,0.0187837315966896
307.67,0.0187257914338932
307.73,0.0178363985069288
307.78,0.0161432915258846
307.84,0.0138872621505556
307.9,0.0113831614539521
307.95,0.008857600612436
308.01,0.0065388467253649
308.07,0.0045479415925974
308.12,0.0030087845953936
308.18,0.0018746676772107
308.24,0.0010696638831067
308.3,0.0005922112285745
308.35,0.0003085327231133
308.41,0.0001398673007164
308.47,7.587371084649447e-05
308.52,5.117992630527283e-05
308.58,4.2549568036133595e-05
308.64,3.825431306076053e-05
308.69,4.0515772555005456e-05
308.75,4.2166389586212536e-05
308.81,4.2814374678606914e-05
308.86,4.360591243376881e-05
308.92,4.396470124643363e-05
308.98,4.408733652247187e-05
309.03,4.416957374210105e-05
309.09,4.419945055330743e-05
309.15,4.4208189455830446e-05
309.2,4.421260759643851e-05
309.26,4.421393757428444e-05
309.32,4.421426364807414e-05
309.37,4.421436733749378e-05
309.43,4.421427059466539e-05
309.49,4.4213950461228024e-05
309.55,4.4212617706311234e-05
309.6,4.420808137633353e-05
309.66,4.419882748655856e-05
309.72,4.416644364656317e-05
309.77,4.407464071071822e-05
309.83,4.393012541874368e-05
309.89,4.349581790998054e-05
309.94,4.2491907936884994e-05
310.0,4.151740444546548e-05
310.06,3.8960127821660936e-05
310.11,3.478894595089824e-05
310.17,3.773702263020221e-05
310.23,4.336019308312264e-05
310.28,6.55023645657428e-05
310.34,0.0001626543210693
310.4,0.000338445200688
310.45,0.000678150032229
310.51,0.0013096576942891
310.57,0.0024787712421937
310.62,0.0042057092214498
310.68,0.0066777159819213
310.74,0.010089566751841
310.8,0.0142829123233709
310.85,0.0191505545386067
310.91,0.0243885423890893
310.97,0.0294914479497703
311.02,0.0339525862112015
311.08,0.0371643739987807
311.14,0.0388893509263729
311.19,0.0387260442347831
311.25,0.03669673860201
311.31,0.0332392765245461
311.36,0.0286249396729045
311.42,0.0234372523404787
311.48,0.0182636643524021
311.53,0.0135253304097583
311.59,0.0094867204998187
311.65,0.0062447041179363
311.7,0.0039266044861552
311.76,0.0023206716798894
311.82,0.0012342395728281
311.87,0.0006462070890754
311.93,0.0003173507073431
311.99,0.0001274438498631
312.05,6.584951870801705e-05
312.1,4.253861128850399e-05
312.16,3.094342031925305e-05
312.22,3.5379065023334144e-05
312.27,3.941091315628281e-05
312.33,4.1797948225269835e-05
312.39,4.270083657380997e-05
312.44,4.359029330866431e-05
312.5,4.397074477425328e-05
312.56,4.409590186131313e-05
312.61,4.4173709138815905e-05
312.67,4.419996295938341e-05
312.73,4.4203576607055034e-05
312.78,4.419328767551325e-05
312.84,4.416557784265355e-05
312.9,4.406444601836553e-05
312.95,4.377455955444534e-05
313.01,4.3026452892498126e-05
313.07,4.197434535841068e-05
313.12,3.894993439853493e-05
313.18,3.242101015089553e-05
313.24,2.7723901662604954e-05
313.3,1.5569855224234038e-05
313.35,0.0
313.41,4.226873412410725e-05
313.47,0.0001240912657657
313.52,0.0003435568544133
313.58,0.0010439537929688
313.64,0.0022625355833472
313.69,0.0044666930851195
313.75,0.0086198105273469
313.81,0.0148268698852769
313.86,0.0238996022687498
313.92,0.0368311352094116
313.98,0.0531808463400396
314.03,0.0727363312521974
314.09,0.0946456724190879
314.15,0.1171994521895783
314.2,0.1380695388269738
314.26,0.155073090981111
314.32,0.165839333184038
314.37,0.1690332989432384
314.43,0.1644544547268246
314.49,0.1524941251944722
314.55,0.1346185564481895
314.6,0.1132885483410227
314.66,0.0906836852317356
314.72,0.069062102112027
314.77,0.0500335269831064
314.83,0.0343172006843887
314.89,0.022024436896683
314.94,0.0135224345444224
315.0,0.0077718553877189
315.06,0.0039607772399033
315.11,0.0019772829339444
315.17,0.0008967699230605
315.23,0.0002809318351874
315.28,9.875543822383508e-05
315.34,3.431261267288448e-05
315.4,9.929469686138678e-07
315.45,1.7321511196905524e-05
315.51,2.9181077243555577e-05
315.57,3.374115905246303e-05
315.62,3.961972287188073e-05
315.68,4.230357906202526e-05
315.74,4.322323383323229e-05
315.8,4.3857828468455585e-05
315.85,4.409216483097336e-05
315.91,4.416188881570494e-05
315.97,4.419832318458315e-05
316.02,4.420986796491833e-05
316.08,4.4213218810012235e-05
316.14,4.421403099554231e-05
316.19,4.421435229100098e-05
316.25,4.421443118182457e-05
316.31,4.4214447617052135e-05
316.36,4.421445308694584e-05
316.42,4.421445422702515e-05
316.48,4.421445443092316e-05
316.53,4.421445448868632e-05
316.59,4.421445449891748e-05
316.65,4.42144545004926e-05
316.7,4.421445450087751e-05
316.76,4.421445450093744e-05
316.82,4.421445450094569e-05
316.87,4.421445450094565e-05
316.93,4.42144545009456e-05
316.99,4.4214454500945554e-05
317.05,4.4214454500945506e-05
317.1,4.421445450094546e-05
317.16,4.421445450094541e-05
317.22,4.421445450094536e-05
317.27,4.421445450094532e-05
317.33,4.421445450094528e-05
317.39,4.421445450094522e-05
317.44,4.421445450094518e-05
317.5,4.4214454500945133e-05
317.56,4.4214454500945086e-05
317.61,4.4214454500945045e-05
317.67,4.4214454500945e-05
317.73,4.4214454500944944e-05
317.78,4.42144545009449e-05
317.84,4.4214454500944856e-05
317.9,4.421445450094481e-05
317.95,4.421445450094476e-05
318.01,4.421445450094471e-05
318.07,4.4214454500944666e-05
318.12,4.421445450094462e-05
318.18,4.421445450094458e-05
318.24,4.421445450094453e-05
318.3,4.421445450094448e-05
318.35,4.421445450094443e-05
318.41,4.421445450094439e-05
318.47,4.421445450094434e-05
318.52,4.42144545009443e-05
318.58,4.421445450094425e-05
318.64,4.42144545009442e-05
318.69,4.421445450094415e-05
318.75,4.421445450094411e-05
318.81,4.421445450094406e-05
318.86,4.4214454500944015e-05
318.92,4.421445450094397e-05
318.98,4.421445450094392e-05
319.03,4.421445450094387e-05
319.09,4.421445450094383e-05
319.15,4.4214454500943785e-05
319.2,4.421445450094373e-05
319.26,4.421445450094369e-05
319.32,4.421445450094364e-05
319.37,4.4214454500943595e-05
319.43,4.421445450094355e-05
319.49,4.421445450094351e-05
319.55,4.421445450094345e-05
319.6,4.4214454500943405e-05
319.66,4.4214454500943365e-05
319.72,4.421445450094332e-05
319.77,4.421445450094327e-05
319.83,4.421445450094322e-05
319.89,4.4214454500943175e-05
319.94,4.421445450094313e-05
320.0,4.421445450094309e-05
320.06,4.421445450094304e-05
320.11,4.4214454500942985e-05
320.17,4.421445450094294e-05
320.23,4.42144545009429e-05
320.28,4.421445450094285e-05
320.34,4.42144545009428e-05
320.4,4.4214454500942755e-05
320.45,4.421445450094271e-05
320.51,4.421445450094266e-05
320.57,4.421445450094262e-05
320.62,4.421445450094257e-05
320.68,4.421445450094253e-05
320.74,4.421445450094248e-05
320.8,4.421445450094243e-05
320.85,4.421445450094238e-05
320.91,4.4214454500942335e-05
320.97,4.4214454500942294e-05
321.02,4.421445450094224e-05
321.08,4.421445450094219e-05
321.14,4.421445450094215e-05
321.19,4.4214454500942104e-05
321.25,4.421445450094206e-05
321.31,4.421445450094201e-05
321.36,4.421445450094196e-05
321.42,4.4214454500941915e-05
321.48,4.4214454500941874e-05
321.53,4.4214454500941827e-05
321.59,4.421445450094178e-05
321.65,4.421445450094173e-05
321.7,4.421445450094168e-05
321.76,4.421445450094164e-05
321.82,4.421445450094159e-05
321.87,4.421445450094155e-05
321.93,4.4214454500941495e-05
321.99,4.421445450094145e-05
322.05,4.4214454500941406e-05
322.1,4.421445450094136e-05
322.16,4.421445450094131e-05
322.22,4.4214454500941264e-05
322.27,4.421445450094122e-05
322.33,4.421445450094117e-05
322.39,4.421445450094113e-05
322.44,4.421445450094108e-05
322.5,4.4214454500941034e-05
322.56,4.421445450094098e-05
322.61,4.421445450094094e-05
322.67,4.421445450094089e-05
322.73,4.421445450094085e-05
322.78,4.42144545009408e-05
322.84,4.421445450094075e-05
322.9,4.42144545009407e-05
322.95,4.421445450094066e-05
323.01,4.4214454500940614e-05
323.07,4.4214454500940566e-05
323.12,4.421445450094052e-05
323.18,4.421445450094047e-05
323.24,4.4214454500940424e-05
323.3,4.4214454500940376e-05
323.35,4.4214454500940336e-05
323.41,4.421445450094028e-05
323.47,4.4214454500940234e-05
323.52,4.4214454500940193e-05
323.58,4.4214454500940146e-05
323.64,4.42144545009401e-05
323.69,4.421445450094006e-05
323.75,4.421445450094e-05
323.81,4.421445450093995e-05
323.86,4.421445450093992e-05
323.92,4.421445450093987e-05
323.98,4.421445450093982e-05
324.03,4.4214454500939767e-05
324.09,4.4214454500939726e-05
324.15,4.421445450093968e-05
324.2,4.421445450093963e-05
324.26,4.421445450093959e-05
324.32,4.4214454500939536e-05
324.37,4.421445450093949e-05
324.43,4.421445450093945e-05
324.49,4.42144545009394e-05
324.55,4.421445450093935e-05
324.6,4.421445450093931e-05
324.66,4.421445450093926e-05
324.72,4.421445450093921e-05
324.77,4.421445450093917e-05
324.83,4.421445450093912e-05
324.89,4.421445450093907e-05
324.94,4.421445450093902e-05
325.0,4.421445450093898e-05
325.06,4.421445450093893e-05
325.11,4.4214454500938886e-05
325.17,4.4214454500938845e-05
325.23,4.421445450093879e-05
325.28,4.421445450093874e-05
325.34,4.42144545009387e-05
325.4,4.4214454500938655e-05
325.45,4.421445450093861e-05
325.51,4.421445450093857e-05
325.57,4.421445450093851e-05
325.62,4.4214454500938466e-05
325.68,4.421445450093842e-05
325.74,4.421445450093838e-05
325.8,4.421445450093833e-05
325.85,4.421445450093827e-05
325.91,4.4214454500938235e-05
325.97,4.421445450093819e-05
326.02,4.421445450093814e-05
326.08,4.42144545009381e-05
326.14,4.4214454500938045e-05
326.19,4.4214454500938e-05
326.25,4.421445450093796e-05
326.31,4.421445450093791e-05
326.36,4.421445450093786e-05
326.42,4.421445450093306e-05
326.48,4.421445450090198e-05
326.53,4.421445450072205e-05
326.59,4.421445450004794e-05
326.65,4.421445449601049e-05
326.7,4.4214454474991766e-05
326.76,4.421445437252457e-05
326.82,4.42144540544272e-05
326.87,4.421445247004598e-05
326.93,4.421444571832838e-05
326.99,4.421442774881323e-05
327.05,4.421434968264301e-05
327.1,4.4214063632201715e-05
327.16,4.421342049060562e-05
327.22,4.421098001807727e-05
327.27,4.420332061328389e-05
327.33,4.418920347608904e-05
327.39,4.414233553532398e-05
327.44,4.401750351026802e-05
327.5,4.38424534835123e-05
327.56,4.3328677846936766e-05
327.61,4.2201163312014056e-05
327.67,4.1343218168372054e-05
327.73,3.899091603565478e-05
327.78,3.5487693114743376e-05
327.84,4.134793151490533e-05
327.9,5.172754455409168e-05
327.95,8.23774084100881e-05
328.01,0.0001657542654864
328.07,0.0004103833754028
328.12,0.0008251121695912
328.18,0.0015501904518378
328.24,0.0028760631100951
328.3,0.0048216522930123
328.35,0.0076352225985904
328.41,0.0116348988904584
328.47,0.0166727297629715
328.52,0.0227540869663314
328.58,0.0296980840550174
328.64,0.0370144923971801
328.69,0.0440540993255101
328.75,0.0500963154918724
328.81,0.0546657030051868
328.86,0.0570249361527394
328.92,0.0568629436857495
328.98,0.0544594840233997
329.03,0.0498481841733879
329.09,0.0436116513288978
329.15,0.0365711815835478
329.2,0.0292997025806423
329.26,0.0224166826563825
329.32,0.0162926674367153
329.37,0.0113406005759848
329.43,0.007513367122284
329.49,0.0046958809988001
329.55,0.0029441624576096
329.6,0.0019442432417921
329.66,0.0015597839771461
329.72,0.0017746168440827
329.77,0.0024499254407305
329.83,0.003609631511818
329.89,0.0051639992302609
329.94,0.0071274650675881
330.0,0.0094311550837342
330.06,0.011913293944469
330.11,0.0143802963662248
330.17,0.0165895507738367
330.23,0.0183671766817056
330.28,0.0194473750215081
330.34,0.019689472334873
330.4,0.0191555571631163
330.45,0.0178192793030099
330.51,0.0158757153973413
330.57,0.0135225048268684
330.62,0.0110073989277456
330.68,0.0085624589086105
330.74,0.0063324608941938
330.8,0.0044816441041495
330.85,0.0030155254247872
330.91,0.0018996767999451
330.97,0.0011635058049628
331.02,0.0006868996253534
331.08,0.000388575492375
331.14,0.0002004097139309
331.19,0.0001153803736987
331.25,7.244350578723277e-05
331.31,4.830396290111253e-05
331.36,4.36240536130208e-05
331.42,4.2526803637585866e-05
331.48,4.180383569148957e-05
331.53,4.289354368621479e-05
331.59,4.353610813296696e-05
331.65,4.377013548646006e-05
331.7,4.402625418465648e-05
331.76,4.413815077975871e-05
331.82,4.417549791352533e-05
331.87,4.420059658509211e-05
331.93,4.420973970319307e-05
331.99,4.4212431158689144e-05
332.05,4.421383828276905e-05
332.1,4.4214275075460545e-05
332.16,4.421438786228452e-05
332.22,4.421443677631813e-05
332.27,4.42144500918964e-05
332.33,4.421445345824458e-05
332.39,4.421445418119271e-05
332.44,4.421445443220551e-05
332.5,4.421445448690924e-05
332.56,4.421445449715511e-05
332.61,4.421445450022315e-05
332.67,4.421445450080083e-05
332.73,4.421445450089551e-05
332.78,4.421445450092037e-05
332.84,4.421445450092465e-05
332.9,4.4214454500925374e-05
332.95,4.421445450092546e-05
333.01,4.421445450092554e-05
333.07,4.4214454500925625e-05
333.12,4.421445450092571e-05
333.18,4.4214454500925794e-05
333.24,4.4214454500925875e-05
333.3,4.421445450092596e-05
333.35,4.421445450092605e-05
333.41,4.421445450092613e-05
333.47,4.421445450092622e-05
333.52,4.42144545009263e-05
333.58,4.4214454500926383e-05
333.64,4.421445450092647e-05
333.69,4.421445450092655e-05
333.75,4.4214454500926634e-05
333.81,4.421445450092672e-05
333.86,4.42144545009268e-05
333.92,4.421445450092689e-05
333.98,4.421445450092698e-05
334.03,4.421445450092706e-05
334.09,4.421445450092714e-05
334.15,4.421445450092723e-05
334.2,4.421445450092731e-05
334.26,4.421445450092739e-05
334.32,4.421445450092748e-05
334.37,4.421445450092756e-05
334.43,4.421445450092765e-05
334.49,4.421445450092773e-05
334.55,4.421445450092782e-05
334.6,4.42144545009279e-05
334.66,4.421445450092799e-05
334.72,4.421445450092807e-05
334.77,4.421445450092815e-05
334.83,4.421445450092824e-05
334.89,4.421445450092832e-05
334.94,4.42144545009284e-05
335.0,4.421445450092849e-05
335.06,4.421445450092857e-05
335.11,4.421445450092866e-05
335.17,4.421445450092875e-05
