Wavelength (nm),Normalized
204.97,0.0038760487226363
205.0,0.003876045602597
205.03,0.003876043507824
205.05,0.0038760424383171
205.07,0.0038760423940765
205.1,0.003876043375102
205.12,0.003876029448676
205.15,0.0038759414090638
205.18,0.0038757452866614
205.2,0.0038752701486174
205.22,0.0038724611081228
205.25,0.0038627350395523
205.28,0.0038526692980217
205.3,0.0038172915033064
205.32,0.0038110634429506
205.35,0.0038659524567361
205.38,0.0039414656085545
205.4,0.0042177818053029
205.43,0.0050615196116904
205.45,0.0065347944165721
205.47,0.0086118305874389
205.5,0.0111969350875419
205.53,0.0140420774503522
205.55,0.0166022549686719
205.57,0.0182207003997167
205.6,0.018584327575018
205.62,0.0176291588739828
205.65,0.015600622896839
205.68,0.0130069800337031
205.7,0.0102287685267827
205.72,0.0077285343197742
205.75,0.0058701258104573
205.78,0.0047611904653853
205.8,0.0041862564004026
205.82,0.0038502611898606
205.85,0.0037540822873661
205.88,0.0038119855384522
205.9,0.0038505987688332
205.93,0.0038585353828478
205.95,0.0038665639765188
205.97,0.0038735837483958
206.0,0.0038755162957498
206.03,0.0038758568372058
206.05,0.0038760160742095
206.07,0.0038760367180273
206.1,0.0038760430150239
206.12,0.0038760450866514
206.15,0.0038760453195439
206.18,0.0038760453379814
206.2,0.0038760453416157
206.22,0.0038760453423621
207.07,0.003876045342404
207.1,0.0038760453424109
207.12,0.0038760453424112
207.15,0.0038760453424112
207.18,0.0038760453424112
207.2,0.0038760453424112
207.22,0.0038760453424112
207.25,0.0038760453424112
207.28,0.0038760453424112
207.3,0.0038760453424112
207.32,0.0038760453424112
207.35,0.0038760453424112
207.38,0.0038760453424112
207.4,0.0038760453424112
207.43,0.0038760453424112
207.45,0.0038760453424112
207.47,0.0038760453424112
207.5,0.0038760453424112
207.53,0.0038760453424112
207.55,0.0038760453424112
207.57,0.0038760453424112
207.6,0.0038760453424112
207.62,0.0038760453424112
207.65,0.0038760453424112
207.68,0.0038760453424112
207.7,0.0038760453424112
207.72,0.0038760453424112
207.75,0.0038760453424112
207.78,0.0038760453424112
207.8,0.0038760453424112
207.82,0.0038760453424112
207.85,0.0038760453424112
207.88,0.0038760453424112
207.9,0.0038760453424112
207.93,0.0038760453424112
207.95,0.0038760453424112
207.97,0.0038760453424112
208.0,0.0038760453424112
208.03,0.0038760453424112
208.05,0.0038760453424112
208.07,0.0038760453424112
208.1,0.0038760453424112
208.12,0.0038760453424112
208.15,0.0038760453424112
208.18,0.0038760453424112
208.2,0.0038760453424112
208.22,0.0038760453424112
208.25,0.0038760453424112
208.28,0.0038760453424112
208.3,0.0038760453424112
208.32,0.0038760453424112
208.35,0.0038760453424112
208.38,0.0038760453424112
208.4,0.0038760453424112
208.43,0.0038760453424112
208.45,0.0038760453424112
208.47,0.0038760453424112
208.5,0.0038760453424112
208.53,0.0038760453424112
208.55,0.0038760453424112
208.57,0.0038760453424112
208.6,0.0038760453424112
208.62,0.0038760453424112
208.65,0.0038760453424112
211.57,0.0038760453424112
211.6,0.0038760453424112
211.62,0.0038760453424112
211.65,0.0038760453424112
211.68,0.0038760453424112
211.7,0.0038760453424112
211.72,0.0038760453424112
211.75,0.0038760453424112
211.78,0.0038760453424112
211.8,0.0038760453424112
211.82,0.0038760453424112
211.85,0.0038760453424112
211.88,0.0038760453424112
211.9,0.0038760453424108
211.93,0.0038760453424084
211.95,0.0038760453423943
211.97,0.0038760453421796
212.0,0.0038760453412732
212.03,0.0038760453306783
212.05,0.0038760452411606
212.07,0.0038760449786617
212.1,0.0038760441401416
212.12,0.0038760377826858
212.15,0.003876006600585
212.18,0.0038759529463864
212.2,0.0038758534590624
212.22,0.0038753405678422
212.25,0.0038739541584541
212.28,0.0038732494242681
212.3,0.0038711123930795
212.32,0.0038748877779463
212.35,0.0038883137508222
212.38,0.003910368471652
212.4,0.0039556891944315
212.43,0.0040406384675752
212.45,0.004161181269387
212.47,0.0043091792538268
212.5,0.0044617668016714
212.53,0.0046015047417718
212.55,0.0046948089215686
212.57,0.0047184830186729
212.6,0.0046677644486303
212.62,0.0045524806035735
212.65,0.0044023068180825
212.68,0.0042481892339946
212.7,0.0041083086980011
212.72,0.0040010922977288
212.75,0.0039297127648656
212.78,0.0038959830317884
212.8,0.0038813087673417
212.82,0.0038724663193847
212.85,0.0038709797628467
212.88,0.0038738032238486
212.9,0.0038752594857104
212.93,0.0038755583525733
212.95,0.0038757976062521
212.97,0.0038759847248137
213.0,0.0038760329300155
213.03,0.0038760410399378
213.05,0.0038760446930461
213.07,0.0038760451538297
213.1,0.0038760452919346
213.12,0.0038760453368828
213.15,0.0038760453419138
213.18,0.0038760453423138
213.2,0.0038760453423935
213.22,0.0038760453424101
213.25,0.0038760453424111
213.28,0.0038760453424112
213.3,0.0038760453424112
213.32,0.0038760453424112
213.35,0.0038760453424112
213.38,0.0038760453424112
213.4,0.0038760453424112
213.43,0.0038760453424112
213.45,0.0038760453424112
213.47,0.0038760453424112
213.5,0.0038760453424112
213.53,0.0038760453424112
213.55,0.0038760453424112
213.57,0.0038760453424112
213.6,0.0038760453424112
213.62,0.0038760453424112
213.65,0.0038760453424112
213.68,0.0038760453424112
213.7,0.0038760453424112
213.72,0.0038760453424112
213.75,0.0038760453424112
213.78,0.0038760453424112
213.8,0.0038760453424112
213.82,0.0038760453424112
213.85,0.0038760453424112
213.88,0.0038760453424112
213.9,0.0038760453424112
213.93,0.0038760453424112
213.95,0.0038760453424112
213.97,0.0038760453424112
214.0,0.0038760453424112
214.03,0.0038760453424113
214.05,0.0038760453424113
214.07,0.0038760453424113
214.1,0.0038760453424113
214.12,0.0038760453424113
214.15,0.0038760453424113
214.18,0.0038760453424113
214.2,0.0038760453424112
214.22,0.0038760453424111
214.25,0.0038760453424088
214.28,0.0038760453423952
216.85,0.0038760453423128
216.88,0.0038760453409924
216.9,0.0038760453254044
216.93,0.0038760452646913
216.95,0.003876045010694
216.97,0.003876042419124
217.0,0.0038760348346065
217.03,0.0038759753510932
217.05,0.0038756520716656
217.07,0.0038750230328895
217.1,0.0038736741035266
217.12,0.0038661379662538
217.15,0.0038422064855996
217.18,0.0038213920359129
217.2,0.0038124555569374
217.22,0.0037391220447675
217.25,0.0036645812484388
217.28,0.00404778792054
217.3,0.004834220863596
217.32,0.0068369728670823
217.35,0.0102019671225831
217.38,0.0148531183599413
217.4,0.0208730365491172
217.43,0.0274299863536867
217.45,0.033464613360445
217.47,0.0381255079633011
217.5,0.0401070701585476
217.53,0.0394579170190617
217.55,0.0358614141048155
217.57,0.0303911222158655
217.6,0.0238618386879843
217.62,0.017384641033365
217.65,0.0120582922235707
217.68,0.0080437650128978
217.7,0.0054876697692025
217.72,0.0043230037035442
217.75,0.0037302482722462
217.78,0.0037421175209222
217.8,0.0038031871052659
217.82,0.0038025073362289
217.85,0.0038270942935352
217.88,0.003860843899921
217.9,0.0038721905428948
217.93,0.003874291847289
217.95,0.003875339844177
217.97,0.0038759125948162
218.0,0.0038760242660069
218.03,0.0038760392413961
218.05,0.0038760446115817
218.07,0.0038760451641367
218.1,0.0038760453018324
218.12,0.0038760453388343
218.15,0.0038760453421493
218.18,0.0038760453423668
218.88,0.0038760453424042
218.9,0.0038760453424109
218.93,0.0038760453424112
218.95,0.0038760453424112
218.97,0.0038760453424113
219.0,0.0038760453424113
219.03,0.0038760453424113
219.05,0.0038760453424113
219.07,0.0038760453424113
219.1,0.0038760453424113
219.12,0.0038760453424113
219.15,0.0038760453424113
219.18,0.0038760453424113
219.2,0.0038760453424113
219.22,0.0038760453424113
219.25,0.0038760453424113
219.28,0.0038760453424113
219.3,0.0038760453424113
219.32,0.0038760453424113
219.35,0.0038760453424113
219.38,0.0038760453424113
219.4,0.0038760453424113
219.43,0.0038760453424113
219.45,0.0038760453424113
219.47,0.0038760453424113
219.5,0.0038760453424113
219.53,0.0038760453424113
219.55,0.0038760453424113
219.57,0.0038760453424113
219.6,0.0038760453424113
219.62,0.0038760453424113
219.65,0.0038760453424113
219.68,0.0038760453424113
219.7,0.0038760453424113
219.72,0.0038760453424113
219.75,0.0038760453424113
219.78,0.0038760453424113
219.8,0.0038760453424113
219.82,0.0038760453424113
219.85,0.0038760453424113
219.88,0.0038760453424113
219.9,0.0038760453424113
219.93,0.0038760453424113
219.95,0.0038760453424113
219.97,0.0038760453424113
220.0,0.0038760453424113
220.03,0.0038760453424113
220.05,0.0038760453424113
220.07,0.0038760453424113
220.1,0.0038760453424113
220.12,0.0038760453424113
220.15,0.0038760453424113
220.18,0.0038760453424113
220.2,0.0038760453424113
220.22,0.0038760453424113
229.0,0.0038760453424113
229.03,0.0038760453424113
229.05,0.0038760453424113
229.07,0.0038760453424113
229.1,0.0038760453424113
229.12,0.0038760453424113
229.15,0.0038760453424113
229.18,0.0038760453424113
229.2,0.0038760453424113
229.22,0.0038760453424113
229.25,0.0038760453424113
229.28,0.0038760453424113
229.3,0.0038760453424113
229.32,0.0038760453424113
229.35,0.0038760453424113
229.38,0.0038760453424113
229.4,0.0038760453424113
229.43,0.0038760453424113
229.45,0.0038760453424113
229.47,0.0038760453424113
229.5,0.0038760453424113
229.53,0.0038760453424113
229.55,0.0038760453424113
229.57,0.0038760453424113
229.6,0.0038760453424113
229.62,0.0038760453424113
229.65,0.0038760453424113
229.68,0.0038760453424113
229.7,0.0038760453424114
229.72,0.0038760453424114
229.75,0.0038760453424114
229.78,0.0038760453424114
229.8,0.0038760453424114
229.82,0.0038760453424114
229.85,0.0038760453424114
229.88,0.0038760453424114
229.9,0.0038760453424114
229.93,0.0038760453424114
229.95,0.0038760453424114
229.97,0.0038760453424114
230.0,0.0038760453424114
230.03,0.0038760453424114
230.05,0.0038760453424114
230.07,0.0038760453424114
230.1,0.0038760453424114
230.12,0.0038760453424114
230.15,0.0038760453424114
230.18,0.0038760453424114
230.2,0.0038760453424114
230.22,0.0038760453424114
230.25,0.0038760453424114
230.28,0.0038760453424114
230.3,0.0038760453424111
230.32,0.0038760453424098
230.35,0.0038760453424009
230.38,0.0038760453422467
234.15,0.0038760453402077
234.18,0.0038760453313841
234.2,0.0038760452901828
234.22,0.0038760448037192
234.25,0.0038760406521351
234.28,0.0038760281361986
234.3,0.0038759237499605
234.32,0.0038756612394004
234.35,0.0038749293817696
234.38,0.0038698995568322
234.4,0.0038478040058982
234.43,0.0038138605654019
234.45,0.0037565263193487
234.47,0.0034524258633825
234.5,0.0031806090316524
234.53,0.0020720575608163
234.55,0.0
234.57,0.0014574648277232
234.6,0.0086978048980791
234.62,0.0193904030325227
234.65,0.04355887435245
234.68,0.1010218966266162
234.7,0.1939579037629016
234.72,0.3186047898826798
234.75,0.4763810905113868
234.78,0.6472561859058394
234.8,0.8133350130382492
234.82,0.9384637072850872
234.85,1.0
234.88,0.9893091319430488
234.9,0.909395213263388
234.93,0.7777472225879362
234.95,0.6125600686832614
234.97,0.4413502466872651
235.0,0.2928944683806941
235.03,0.176333661206869
235.05,0.0981324510791374
235.07,0.044267741932915
235.1,0.0162920014986772
235.12,0.009358235629
235.15,0.0070477596997257
235.18,0.0043470638443479
235.2,0.0036746790527146
235.22,0.0041602011936219
235.25,0.0039814102073003
235.28,0.0040345322483458
235.3,0.0039763859655001
235.32,0.0038877922325786
235.35,0.0038549336968979
235.38,0.0038643481864853
235.4,0.0038705862807901
235.43,0.0038704246156042
235.45,0.0038721909600415
235.47,0.0038747853385797
235.5,0.0038756913379844
235.53,0.0038758841042761
235.55,0.0038760107933547
235.57,0.003876031551712
235.6,0.0038760403287379
235.62,0.0038760445033636
235.65,0.0038760452246789
235.68,0.0038760453095197
235.7,0.0038760453338409
235.72,0.0038760453414838
235.75,0.0038760453422025
235.78,0.0038760453423928
235.8,0.0038760453424099
237.47,0.003876045342411
237.5,0.0038760453424112
237.53,0.0038760453424112
237.55,0.0038760453424112
237.57,0.0038760453424112
237.6,0.0038760453424112
237.62,0.0038760453424112
237.65,0.0038760453424112
237.68,0.0038760453424112
237.7,0.0038760453424112
237.72,0.0038760453424112
237.75,0.0038760453424112
237.78,0.0038760453424112
237.8,0.0038760453424112
237.82,0.0038760453424112
237.85,0.0038760453424112
237.88,0.0038760453424112
237.9,0.0038760453424112
237.93,0.0038760453424112
237.95,0.0038760453424112
237.97,0.0038760453424112
238.0,0.0038760453424112
238.03,0.0038760453424112
238.05,0.0038760453424112
238.07,0.0038760453424112
238.1,0.0038760453424112
238.12,0.0038760453424112
238.15,0.0038760453424112
238.18,0.0038760453424112
238.2,0.0038760453424112
238.22,0.0038760453424112
238.25,0.0038760453424112
238.28,0.0038760453424112
238.3,0.0038760453424112
238.32,0.0038760453424112
238.35,0.0038760453424112
238.38,0.0038760453424112
238.4,0.0038760453424112
238.43,0.0038760453424112
238.45,0.0038760453424112
238.47,0.0038760453424112
238.5,0.0038760453424112
238.53,0.0038760453424112
238.55,0.0038760453424112
238.57,0.0038760453424112
238.6,0.0038760453424112
238.62,0.0038760453424112
238.65,0.0038760453424112
238.68,0.0038760453424112
238.7,0.0038760453424112
238.72,0.0038760453424112
238.75,0.0038760453424112
238.78,0.0038760453424112
238.8,0.0038760453424112
238.82,0.0038760453424112
238.85,0.0038760453424112
238.88,0.0038760453424112
238.9,0.0038760453424112
238.93,0.0038760453424112
239.4,0.0038760453424112
239.43,0.0038760453424112
239.45,0.0038760453424112
239.47,0.0038760453424112
239.5,0.0038760453424112
239.53,0.0038760453424112
239.55,0.0038760453424112
239.57,0.0038760453424112
239.6,0.0038760453424112
239.62,0.0038760453424112
239.65,0.0038760453424112
239.68,0.0038760453424112
239.7,0.0038760453424112
239.72,0.0038760453424112
239.75,0.0038760453424112
239.78,0.0038760453424112
239.8,0.0038760453424112
239.82,0.0038760453424112
239.85,0.0038760453424112
239.88,0.0038760453424112
239.9,0.0038760453424112
239.93,0.0038760453424112
239.95,0.0038760453424112
239.97,0.0038760453424112
240.0,0.0038760453424112
240.03,0.0038760453424112
240.05,0.0038760453424112
240.07,0.0038760453424112
240.1,0.0038760453424112
240.12,0.0038760453424112
240.15,0.0038760453424112
240.18,0.0038760453424112
240.2,0.0038760453424112
240.22,0.0038760453424112
240.25,0.0038760453424112
240.28,0.0038760453424112
240.3,0.0038760453424112
240.32,0.0038760453424112
240.35,0.0038760453424112
240.38,0.0038760453424112
240.4,0.0038760453424112
240.43,0.0038760453424112
240.45,0.0038760453424112
240.47,0.0038760453424112
240.5,0.0038760453424112
240.53,0.0038760453424112
240.55,0.0038760453424112
240.57,0.0038760453424112
240.6,0.0038760453424112
240.62,0.0038760453424112
240.65,0.0038760453424112
240.68,0.0038760453424112
240.7,0.0038760453424112
240.72,0.0038760453424112
240.75,0.0038760453424112
240.78,0.0038760453424112
240.8,0.0038760453424112
240.82,0.0038760453424112
240.85,0.0038760453424112
240.88,0.0038760453424112
240.9,0.0038760453424112
240.93,0.0038760453424112
240.95,0.0038760453424112
240.97,0.0038760453424112
241.0,0.0038760453424112
241.03,0.0038760453424112
241.05,0.0038760453424112
241.07,0.0038760453424112
241.1,0.0038760453424112
241.12,0.0038760453424112
241.15,0.0038760453424112
241.18,0.0038760453424112
241.2,0.0038760453424112
241.22,0.0038760453424112
241.25,0.0038760453424112
241.28,0.0038760453424112
241.3,0.0038760453424113
241.32,0.0038760453424113
241.35,0.0038760453424113
241.38,0.0038760453424113
241.4,0.0038760453424113
241.43,0.0038760453424113
241.45,0.0038760453424113
241.47,0.0038760453424113
241.5,0.0038760453424113
241.53,0.0038760453424113
241.55,0.0038760453424113
241.57,0.0038760453424113
241.6,0.0038760453424113
241.62,0.0038760453424113
241.65,0.0038760453424113
241.68,0.0038760453424113
241.7,0.0038760453424113
241.72,0.0038760453424113
241.75,0.0038760453424113
241.78,0.0038760453424113
241.8,0.0038760453424113
241.82,0.0038760453424113
241.85,0.0038760453424113
241.88,0.0038760453424113
241.9,0.0038760453424113
241.93,0.0038760453424113
241.95,0.0038760453424113
241.97,0.0038760453424113
242.0,0.0038760453424112
242.03,0.0038760453424112
242.05,0.00387604534241
242.07,0.0038760453424047
248.7,0.0038760453423775
248.72,0.0038760453420171
248.75,0.0038760453384597
248.78,0.0038760453261963
248.8,0.003876045206466
248.82,0.0038760448515264
248.85,0.0038760436821422
248.88,0.0038760341691895
248.9,0.0038759814700284
248.93,0.0038758743537887
248.95,0.0038756260672229
248.97,0.003874100431971
249.0,0.0038717703756085
249.03,0.0038604992227718
249.05,0.0038267727494951
249.07,0.0038004448346442
249.1,0.0037929233714956
249.12,0.0036760304557136
249.15,0.0034845549781422
249.18,0.0039252489358319
249.2,0.0053183544269504
249.22,0.007356774350442
249.25,0.0113433490884441
249.28,0.0197121402534844
249.3,0.0320370400671354
249.32,0.0494918161626537
249.35,0.070589359699022
249.38,0.093516554119309
249.4,0.1157252060918002
249.43,0.1329303329694444
249.45,0.142195242095228
249.47,0.1423575761009635
249.5,0.1330149581322049
249.53,0.1173213463915366
249.55,0.0962528896375356
249.57,0.0739808668850095
249.6,0.0528944326872966
249.62,0.0356035567449267
249.65,0.0227459001335344
249.68,0.0132348724381211
249.7,0.0075033018388415
249.72,0.0050930901841491
249.75,0.0037290724629685
249.78,0.0037083907930857
249.8,0.0037772543187752
249.82,0.0037266120636711
249.85,0.0037602451641063
249.88,0.0038361612069876
249.9,0.0038643977770851
249.93,0.0038695660474359
249.95,0.0038729178777262
249.97,0.0038753012751979
250.0,0.0038758903031267
250.03,0.0038759890318046
250.05,0.0038760360456529
250.07,0.0038760423369626
250.1,0.003876044432464
250.12,0.0038760452208513
250.15,0.0038760453285518
250.18,0.0038760453390785
250.2,0.0038760453416536
250.22,0.0038760453423428
250.25,0.0038760453423976
250.28,0.0038760453424102
250.3,0.0038760453424112
250.32,0.0038760453424113
250.35,0.0038760453424113
250.38,0.0038760453424113
250.4,0.0038760453424113
250.43,0.0038760453424113
250.45,0.0038760453424113
250.47,0.0038760453424113
250.5,0.0038760453424113
250.53,0.0038760453424113
250.55,0.0038760453424113
250.57,0.0038760453424113
250.6,0.0038760453424113
250.62,0.0038760453424113
250.65,0.0038760453424113
250.68,0.0038760453424113
250.7,0.0038760453424113
250.72,0.0038760453424113
250.75,0.0038760453424113
250.78,0.0038760453424113
250.8,0.0038760453424113
250.82,0.0038760453424113
250.85,0.0038760453424113
250.88,0.0038760453424113
250.9,0.0038760453424113
250.93,0.0038760453424113
250.95,0.0038760453424113
250.97,0.0038760453424113
251.0,0.0038760453424113
251.03,0.0038760453424113
251.05,0.0038760453424113
251.07,0.0038760453424113
251.1,0.0038760453424113
251.12,0.0038760453424113
251.15,0.0038760453424113
251.18,0.0038760453424113
251.2,0.0038760453424113
251.22,0.0038760453424113
251.25,0.0038760453424113
251.28,0.0038760453424113
251.3,0.0038760453424113
251.32,0.0038760453424113
251.35,0.0038760453424113
251.38,0.0038760453424113
251.4,0.0038760453424113
251.43,0.0038760453424113
251.45,0.0038760453424113
251.47,0.0038760453424113
251.5,0.0038760453424113
261.0,0.0038760453424113
261.02,0.0038760453424113
261.05,0.0038760453424113
261.07,0.0038760453424113
261.1,0.0038760453424113
261.12,0.0038760453424113
261.15,0.0038760453424113
261.18,0.0038760453424113
261.2,0.0038760453424113
261.23,0.0038760453424113
261.25,0.0038760453424113
261.27,0.0038760453424113
261.3,0.0038760453424113
261.32,0.0038760453424113
261.35,0.0038760453424113
261.38,0.0038760453424113
261.4,0.0038760453424113
261.43,0.0038760453424113
261.45,0.0038760453424113
261.48,0.0038760453424113
261.5,0.0038760453424113
261.52,0.0038760453424113
261.55,0.0038760453424113
261.57,0.0038760453424113
261.6,0.0038760453424113
261.62,0.0038760453424113
261.65,0.0038760453424113
261.68,0.0038760453424113
261.7,0.0038760453424113
261.73,0.0038760453424113
261.75,0.0038760453424113
261.77,0.0038760453424113
261.8,0.0038760453424113
261.82,0.0038760453424113
261.85,0.0038760453424113
261.88,0.0038760453424113
261.9,0.0038760453424113
261.93,0.0038760453424113
261.95,0.0038760453424113
261.98,0.0038760453424113
262.0,0.0038760453424113
262.02,0.0038760453424113
