Wavelength (nm),Normalized
201.5,0.0049719387742141
201.53,0.0049719346274586
201.55,0.0049719318094424
201.57,0.0049719303201657
201.6,0.0049719301596285
201.62,0.0049719313278306
201.65,0.0049719122798125
201.68,0.004971863174313
201.7,0.0049717260819906
201.72,0.004970825537192
201.75,0.0049672090995362
201.78,0.0049624684918779
201.8,0.0049438445221032
201.82,0.0049321784844966
201.85,0.0049397741050833
201.88,0.0049316789933575
201.9,0.0049961185358352
201.93,0.0053925155882487
201.95,0.0061989484316922
201.97,0.0074285487526731
202.0,0.0091493080645269
202.03,0.0112318887732705
202.05,0.0133527628948958
202.07,0.0149801886157682
202.1,0.015799233665866
202.12,0.0156619957870112
202.15,0.0145908574888685
202.18,0.0128796502204874
202.2,0.0108049940996214
202.22,0.0087427464401671
202.25,0.0070937849544423
202.28,0.0059909218601395
202.3,0.0053675606372329
202.32,0.0049993285799679
202.35,0.0048736481117663
202.38,0.004912471888368
202.4,0.0049460756896444
202.43,0.0049528337755472
202.45,0.0049611806791537
202.47,0.0049690418651227
202.5,0.0049712952127009
202.53,0.0049717029155203
202.55,0.0049718977386485
202.57,0.0049719233809374
202.6,0.004971931264779
202.62,0.0049719338712254
202.65,0.0049719341640988
202.68,0.0049719341871539
202.7,0.0049719341916535
202.72,0.004971934192539
205.53,0.0049719341920049
205.55,0.0049719341825466
205.57,0.0049719341356747
205.6,0.0049719338931449
205.62,0.0049719307494839
205.65,0.0049719019584653
205.68,0.0049718122133387
205.7,0.0049715107623342
205.72,0.0049691271682959
205.75,0.0049569131778811
205.78,0.0049350093559574
205.8,0.0048267285468748
205.82,0.0046925875481777
205.85,0.0045424974037216
205.88,0.003812116114682
205.9,0.0026014922156457
205.93,0.0040012626873192
205.95,0.0095949680883987
205.97,0.0192265438382964
206.0,0.0403340454986841
206.03,0.0730501848938033
206.05,0.1196550251787244
206.07,0.1741645915311864
206.1,0.2276671971351014
206.12,0.2725108210138882
206.15,0.2977085064477828
206.18,0.2967406733834045
206.2,0.2698463944928861
206.22,0.2224384232813102
206.25,0.1673186202474274
206.28,0.1117471203990725
206.3,0.0666839997175864
206.32,0.0339107463189098
206.35,0.0143465097763833
206.38,0.0071289307594911
206.4,0.0048200211055006
206.43,0.0033442087247912
206.45,0.0034533127255013
206.47,0.004375128045446
206.5,0.0047811869768671
206.53,0.0048795930683583
206.55,0.0049512817889038
206.57,0.0049637061507858
206.6,0.0049690115037403
206.62,0.0049714726781369
206.65,0.0049718752558252
206.68,0.0049719193044197
206.7,0.0049719307367727
206.72,0.0049719338848718
206.75,0.0049719341336585
206.78,0.0049719341886062
206.8,0.0049719341924037
206.82,0.0049719341925976
206.85,0.0049719341926248
206.88,0.0049719341926287
206.9,0.0049719341926288
206.93,0.0049719341926288
206.95,0.0049719341926288
206.97,0.0049719341926288
207.0,0.0049719341926288
207.03,0.0049719341926288
207.05,0.0049719341926288
207.07,0.0049719341926288
207.1,0.0049719341926288
207.12,0.0049719341926288
207.15,0.0049719341926288
207.18,0.0049719341926288
207.2,0.0049719341926288
207.22,0.0049719341926288
207.25,0.0049719341926288
207.28,0.0049719341926288
207.3,0.0049719341926288
207.32,0.0049719341926288
207.35,0.0049719341926288
207.38,0.0049719341926288
207.4,0.0049719341926288
207.43,0.0049719341926288
207.45,0.0049719341926288
207.47,0.0049719341926288
207.5,0.0049719341926288
207.53,0.0049719341926288
207.55,0.0049719341926288
207.57,0.0049719341926288
207.6,0.0049719341926288
207.62,0.0049719341926288
207.65,0.0049719341926288
207.68,0.0049719341926288
207.7,0.0049719341926288
207.72,0.0049719341926288
207.75,0.0049719341926288
207.78,0.0049719341926288
207.8,0.0049719341926288
207.82,0.0049719341926288
207.85,0.0049719341926288
207.88,0.0049719341926288
207.9,0.0049719341926288
207.93,0.0049719341926288
207.95,0.0049719341926288
209.7,0.0049719341926288
209.72,0.0049719341926288
209.75,0.0049719341926288
209.78,0.0049719341926288
209.8,0.0049719341926288
209.82,0.0049719341926288
209.85,0.0049719341926288
209.88,0.0049719341926288
209.9,0.0049719341926288
209.93,0.0049719341926288
209.95,0.0049719341926288
209.97,0.0049719341926288
210.0,0.0049719341926288
210.03,0.0049719341926288
210.05,0.0049719341926288
210.07,0.0049719341926288
210.1,0.0049719341926288
210.12,0.0049719341926288
210.15,0.0049719341926288
210.18,0.0049719341926288
210.2,0.0049719341926288
210.22,0.0049719341926288
210.25,0.0049719341926288
210.28,0.0049719341926288
210.3,0.0049719341926285
210.32,0.0049719341926269
210.35,0.004971934192615
210.38,0.0049719341923745
210.4,0.0049719341887495
210.43,0.0049719341717156
210.45,0.0049719340873731
210.47,0.0049719330454775
210.5,0.0049719294028717
210.53,0.0049718951692361
210.55,0.0049716685600158
210.57,0.0049711365802017
210.6,0.0049697682320115
210.62,0.0049612346853079
210.65,0.0049290506539475
210.68,0.0048902383386482
210.7,0.0048467861755169
210.72,0.0046340050555164
210.75,0.0042596165286358
210.78,0.0046102941119143
210.8,0.0054437189894422
210.82,0.0089071298337269
210.85,0.015676251144952
210.88,0.0257860382809049
210.9,0.0404117439231378
210.93,0.0583523749026166
210.95,0.0769448707724688
210.97,0.093728978970975
211.0,0.1042314003320125
211.03,0.1075470108402077
211.05,0.1017508758664975
211.07,0.0888649015162077
211.1,0.0709922405812453
211.12,0.0513810437177006
211.15,0.034113173014676
211.18,0.0206081451597355
211.2,0.0115416811360329
211.22,0.0070002739251359
211.25,0.0046713247694984
211.28,0.0045455342186128
211.3,0.0047125108571139
211.32,0.0046984081758118
211.35,0.0047876178192929
211.38,0.0049143510657936
211.4,0.0049574030058787
211.43,0.0049654292905543
211.45,0.0049693679474972
211.47,0.0049714664031676
211.5,0.004971862909975
211.53,0.004971914300387
211.55,0.0049719319419222
211.57,0.004971933670112
211.6,0.004971934079827
211.62,0.0049719341834634
211.65,0.0049719341920156
211.68,0.0049719341925319
211.7,0.0049719341926145
211.72,0.0049719341926281
211.75,0.0049719341926287
211.78,0.0049719341926288
211.8,0.0049719341926288
211.82,0.0049719341926288
211.85,0.0049719341926288
211.88,0.0049719341926288
211.9,0.0049719341926288
211.93,0.0049719341926288
211.95,0.0049719341926288
211.97,0.0049719341926288
212.0,0.0049719341926288
212.03,0.0049719341926288
212.05,0.0049719341926288
212.07,0.0049719341926288
212.1,0.0049719341926288
212.12,0.0049719341926288
212.15,0.0049719341926288
212.18,0.0049719341926288
212.2,0.0049719341926288
212.22,0.0049719341926288
212.25,0.0049719341926288
212.28,0.0049719341926288
212.3,0.0049719341926288
212.32,0.0049719341926288
212.35,0.0049719341926288
212.38,0.0049719341926288
212.4,0.0049719341926288
212.43,0.0049719341926288
212.45,0.0049719341926288
212.47,0.0049719341926288
212.5,0.0049719341926288
212.53,0.0049719341926288
212.55,0.0049719341926288
212.57,0.0049719341926288
212.6,0.0049719341926288
217.75,0.0049719341926288
217.78,0.0049719341926288
217.8,0.0049719341926288
217.82,0.0049719341926288
217.85,0.0049719341926288
217.88,0.0049719341926288
217.9,0.0049719341926288
217.93,0.0049719341926288
217.95,0.0049719341926288
217.97,0.0049719341926288
218.0,0.0049719341926288
218.03,0.0049719341926288
218.05,0.0049719341926288
218.07,0.0049719341926288
218.1,0.0049719341926288
218.12,0.0049719341926288
218.15,0.0049719341926288
218.18,0.0049719341926288
218.2,0.0049719341926288
218.22,0.0049719341926288
218.25,0.0049719341926288
218.28,0.0049719341926288
218.3,0.0049719341926288
218.32,0.0049719341926288
218.35,0.0049719341926288
218.38,0.0049719341926288
218.4,0.0049719341926288
218.43,0.0049719341926288
218.45,0.0049719341926288
218.47,0.0049719341926288
218.5,0.0049719341926288
218.53,0.0049719341926288
218.55,0.0049719341926288
218.57,0.0049719341926288
218.6,0.0049719341926288
218.62,0.0049719341926288
218.65,0.0049719341926288
218.68,0.0049719341926288
218.7,0.0049719341926288
218.72,0.0049719341926288
218.75,0.0049719341926288
218.78,0.0049719341926288
218.8,0.0049719341926288
218.82,0.0049719341926288
218.85,0.0049719341926288
218.88,0.0049719341926288
218.9,0.0049719341926288
218.93,0.0049719341926288
218.95,0.0049719341926288
218.97,0.0049719341926288
219.0,0.0049719341926288
219.03,0.0049719341926288
219.05,0.0049719341926288
219.07,0.0049719341926288
220.7,0.0049719341926288
220.72,0.0049719341926288
220.75,0.0049719341926288
220.78,0.0049719341926288
220.8,0.0049719341926288
220.82,0.0049719341926288
220.85,0.0049719341926288
220.88,0.0049719341926288
220.9,0.0049719341926288
220.93,0.0049719341926288
220.95,0.0049719341926288
220.97,0.0049719341926288
221.0,0.0049719341926288
221.03,0.0049719341926288
221.05,0.0049719341926288
221.07,0.0049719341926288
221.1,0.0049719341926288
221.12,0.0049719341926288
221.15,0.0049719341926288
221.18,0.0049719341926288
221.2,0.0049719341926288
221.22,0.0049719341926288
221.25,0.0049719341926288
221.28,0.0049719341926288
221.3,0.0049719341926288
221.32,0.0049719341926288
221.35,0.0049719341926288
221.38,0.0049719341926288
221.4,0.0049719341926288
221.43,0.0049719341926288
221.45,0.0049719341926288
221.47,0.0049719341926288
221.5,0.0049719341926288
221.53,0.0049719341926288
221.55,0.0049719341926288
221.57,0.0049719341926288
221.6,0.0049719341926288
221.62,0.0049719341926288
221.65,0.0049719341926288
221.68,0.0049719341926288
221.7,0.0049719341926288
221.72,0.0049719341926288
221.75,0.0049719341926288
221.78,0.0049719341926288
221.8,0.0049719341926288
221.82,0.0049719341926288
221.85,0.0049719341926288
221.88,0.0049719341926288
221.9,0.0049719341926288
221.93,0.0049719341926288
221.95,0.0049719341926287
221.97,0.0049719341926281
222.0,0.0049719341926236
222.03,0.0049719341925371
222.15,0.0049719341912824
222.18,0.0049719341854963
222.2,0.0049719341570651
222.22,0.0049719338043506
222.25,0.0049719306607094
222.28,0.004971920917749
222.3,0.0049718384914105
222.32,0.0049716300696909
222.35,0.0049710519455103
222.38,0.0049671546325339
222.4,0.004950635945999
222.43,0.0049266770191195
222.45,0.0048898789446805
222.47,0.0047033377758929
222.5,0.0045764486466019
222.53,0.0040886561790557
222.55,0.0034564008606898
222.57,0.0051026964572128
222.6,0.0101410750696763
222.62,0.0182491630370123
222.65,0.0333674003243717
222.68,0.0596631981037862
222.7,0.0955548218184314
222.72,0.1376838399096624
222.75,0.1807855388631269
222.78,0.2179113482831181
222.8,0.2423209319336563
222.82,0.2593648890808177
222.85,0.2726846356148549
222.88,0.2842208037959813
222.9,0.3182828398896689
222.93,0.3956237416765207
222.95,0.5112267464382327
222.97,0.6572719430368923
223.0,0.8038983322075343
223.03,0.9298497073805964
223.05,1.0
223.07,0.9919048177473868
223.1,0.9058243005556768
223.12,0.7569919402730337
223.15,0.579662152390219
223.18,0.4052775326472892
223.2,0.2524991813043105
223.22,0.1391987059332062
223.25,0.0637391419609175
223.28,0.0283730841322707
223.3,0.0123081661639166
223.32,0.0021687568220259
223.35,0.0
223.38,0.0026915262669859
223.4,0.0041322387492164
223.43,0.0044029587261575
223.45,0.0046621883491192
223.47,0.0048898703526001
223.5,0.0049534767562725
223.53,0.0049649943949257
223.55,0.0049707594066248
223.57,0.0049715561684087
223.6,0.0049718219943824
223.62,0.004971919899055
223.65,0.004971932679865
223.68,0.0049719338554221
223.7,0.0049719341223671
223.72,0.004971934187142
226.97,0.0049719341914699
227.0,0.0049719341915691
227.03,0.004971934180999
227.05,0.004971934076993
227.07,0.0049719337264287
227.1,0.0049719324336774
227.12,0.0049719208485883
227.15,0.0049718498626979
227.18,0.0049716927904218
227.2,0.00497130454507
227.22,0.0049688943862248
227.25,0.0049597619873094
227.28,0.0049484470735196
227.3,0.0049019115128659
227.32,0.0048700390037698
227.35,0.0048769666404975
227.38,0.0047807501391281
227.4,0.0047301096784215
227.43,0.0056047799595822
227.45,0.0077633871592694
227.47,0.0111336327760684
227.5,0.0171532418418059
227.53,0.0256279663166543
227.55,0.0367364574644377
227.57,0.0491205052964292
227.6,0.0608643043299067
227.62,0.0704238396775527
227.65,0.0757583766122
227.68,0.0755549786109572
227.7,0.06978565298753
227.72,0.0595879891467143
227.75,0.0474688786082253
227.78,0.0348108923694669
227.8,0.0239517654253017
227.82,0.0154646262037813
227.85,0.0097971410769242
227.88,0.0070124663753485
227.9,0.0056730010265245
227.93,0.0048232745478025
227.95,0.0046049260006332
227.97,0.0047872777504248
228.0,0.0048968711786646
228.03,0.0049247170944656
228.05,0.0049582958882788
228.07,0.0049647568613411
228.1,0.0049686639247526
228.12,0.0049712231286142
228.15,0.0049718062956432
228.18,0.0049718908246974
228.2,0.0049719207113997
228.22,0.0049719323433324
228.25,0.0049719337024072
228.28,0.0049719341387748
228.3,0.0049719341876704
228.32,0.0049719341916247
228.35,0.0049719341924278
239.38,0.004971934192488
239.4,0.0049719341912205
239.43,0.0049719341864696
239.45,0.004971934167148
239.47,0.0049719339720169
239.5,0.0049719333976172
239.53,0.0049719287578069
239.55,0.0049719019698345
239.57,0.0049718453884964
239.6,0.0049717102454156
239.62,0.0049708752969672
239.65,0.0049677229502861
239.68,0.0049638072198031
239.7,0.0049588343789626
239.72,0.0049317533216294
239.75,0.0048693368076143
239.78,0.0048713222084633
239.8,0.0048459708382155
239.82,0.0051513281181332
239.85,0.0059447016595392
239.88,0.0071350330797478
239.9,0.0093145538384533
239.93,0.0132981975255209
239.95,0.0189635773618218
239.97,0.0259563420597195
240.0,0.0336909443707111
240.03,0.0414640555393343
240.05,0.0478715930714205
240.07,0.0515173504469073
240.1,0.051715859912498
240.12,0.0485115062680822
240.15,0.0426744918849281
240.18,0.0353384390823519
240.2,0.0274139637187551
240.22,0.0200727209208281
240.25,0.0141648095794306
240.28,0.0101232813624719
240.3,0.0075574013961599
240.32,0.0058357019956215
240.35,0.0050302912964855
240.38,0.0049293364760944
240.4,0.0049297831044674
240.43,0.0048914739560101
240.45,0.0049061501582625
240.47,0.0049478627081782
240.5,0.0049643758206191
240.53,0.0049681192668418
240.55,0.0049710214695613
240.57,0.0049715284143323
240.6,0.0049717717507466
240.62,0.0049719035044542
240.65,0.0049719293199573
240.68,0.0049719326845983
240.7,0.0049719337588921
240.72,0.0049719341385325
240.75,0.0049719341791086
240.78,0.004971934191244
240.8,0.0049719341925081
240.82,0.0049719341926052
240.85,0.0049719341926244
240.88,0.0049719341926285
240.9,0.0049719341926288
240.93,0.0049719341926288
240.95,0.0049719341926288
240.97,0.0049719341926288
241.0,0.0049719341926288
241.03,0.0049719341926288
241.05,0.0049719341926288
241.07,0.0049719341926288
241.1,0.0049719341926288
241.12,0.0049719341926288
241.15,0.0049719341926288
241.18,0.0049719341926288
241.2,0.0049719341926288
241.22,0.0049719341926288
241.25,0.0049719341926288
241.28,0.0049719341926288
241.3,0.0049719341926288
241.32,0.0049719341926288
241.35,0.0049719341926288
241.38,0.0049719341926288
241.4,0.0049719341926288
241.43,0.0049719341926288
241.45,0.0049719341926288
241.47,0.0049719341926288
241.5,0.0049719341926288
241.53,0.0049719341926288
241.55,0.0049719341926288
241.57,0.0049719341926288
241.6,0.0049719341926288
241.62,0.0049719341926288
241.65,0.0049719341926288
241.68,0.0049719341926288
241.7,0.0049719341926288
241.72,0.0049719341926288
241.75,0.0049719341926288
241.78,0.0049719341926288
241.8,0.0049719341926288
241.82,0.0049719341926288
241.85,0.0049719341926288
241.88,0.0049719341926288
241.9,0.0049719341926288
241.93,0.0049719341926288
241.95,0.0049719341926288
241.97,0.0049719341926288
242.0,0.0049719341926288
242.03,0.0049719341926288
242.05,0.0049719341926288
242.07,0.0049719341926288
242.1,0.0049719341926288
242.12,0.0049719341926288
242.15,0.0049719341926288
242.18,0.0049719341926288
242.2,0.0049719341926288
243.0,0.0049719341926288
243.03,0.0049719341926288
243.05,0.0049719341926288
243.07,0.0049719341926288
243.1,0.0049719341926288
243.12,0.0049719341926288
243.15,0.0049719341926288
243.18,0.0049719341926288
243.2,0.0049719341926288
243.22,0.0049719341926288
243.25,0.0049719341926288
243.28,0.0049719341926288
243.3,0.0049719341926288
243.32,0.0049719341926288
243.35,0.0049719341926288
243.38,0.0049719341926288
243.4,0.0049719341926288
243.43,0.0049719341926288
243.45,0.0049719341926288
243.47,0.0049719341926288
243.5,0.0049719341926288
243.53,0.0049719341926288
243.55,0.0049719341926288
243.57,0.0049719341926288
243.6,0.0049719341926288
243.62,0.0049719341926288
243.65,0.0049719341926288
243.68,0.0049719341926288
243.7,0.0049719341926288
243.72,0.0049719341926288
243.75,0.0049719341926288
243.78,0.0049719341926288
243.8,0.0049719341926288
243.82,0.0049719341926288
243.85,0.0049719341926288
243.88,0.0049719341926288
243.9,0.0049719341926288
243.93,0.0049719341926288
243.95,0.0049719341926288
243.97,0.0049719341926288
244.0,0.0049719341926288
244.03,0.0049719341926288
244.05,0.0049719341926288
244.07,0.0049719341926288
244.1,0.0049719341926288
244.12,0.0049719341926288
244.15,0.0049719341926288
244.18,0.0049719341926288
244.2,0.0049719341926288
244.22,0.0049719341926288
244.25,0.0049719341926288
244.28,0.0049719341926288
244.3,0.0049719341926288
244.32,0.0049719341926288
244.35,0.0049719341926288
244.38,0.0049719341926288
244.4,0.0049719341926288
244.43,0.0049719341926288
244.45,0.0049719341926288
244.47,0.0049719341926288
244.5,0.0049719341926288
244.53,0.0049719341926288
244.55,0.0049719341926288
244.57,0.0049719341926288
244.6,0.0049719341926288
244.62,0.0049719341926288
244.65,0.0049719341926288
244.68,0.0049719341926288
244.7,0.0049719341926288
244.72,0.0049719341926288
244.75,0.0049719341926288
244.78,0.0049719341926288
244.8,0.0049719341926288
244.82,0.0049719341926288
244.85,0.0049719341926288
244.88,0.0049719341926288
244.9,0.0049719341926288
244.93,0.0049719341926288
244.95,0.0049719341926288
244.97,0.0049719341926288
245.0,0.0049719341926288
245.03,0.0049719341926288
245.05,0.0049719341926287
245.07,0.0049719341926283
251.68,0.0049719341926266
251.7,0.0049719341926182
251.72,0.0049719341925155
251.75,0.0049719341915923
251.78,0.0049719341886427
251.8,0.0049719341620811
251.82,0.0049719340891294
251.85,0.0049719338651573
251.88,0.0049719321598836
251.9,0.0049719234656514
251.93,0.0049719072996799
251.95,0.0049718729401737
251.97,0.0049716709543199
252.0,0.0049713951518331
252.03,0.0049701212740012
252.05,0.0049666227329489
252.07,0.0049646345570307
252.1,0.0049658070197901
252.12,0.0049594075549025
252.15,0.0049529223123892
252.18,0.0050094915328777
252.2,0.005155362275486
252.22,0.0053713978494515
252.25,0.0057556479720668
252.28,0.006453811407644
252.3,0.0074269732862665
252.32,0.0086939655275974
252.35,0.0101225461810268
252.38,0.0115750115988864
252.4,0.0128573245497492
252.43,0.0137075029763081
252.45,0.013973998005576
252.47,0.0136329760863534
252.5,0.0127414584952119
252.53,0.011535497875593
252.55,0.0101093471347659
252.57,0.0087086524734001
252.6,0.0074711175391638
252.62,0.006528984282667
252.65,0.0058634207842466
252.68,0.0053828859082341
252.7,0.0051093557077734
252.72,0.0050095051160232
252.75,0.0049529937401027
252.78,0.0049595104370452
252.8,0.0049659276587625
252.82,0.0049647592552337
252.85,0.004966737792783
252.88,0.0049702129978672
252.9,0.0049714498426902
252.93,0.0049716749133121
252.95,0.0049718124698428
252.97,0.0049719060433068
253.0,0.0049719284855898
253.03,0.0049719321585298
253.05,0.0049719338638869
253.07,0.0049719340880937
253.1,0.0049719341614314
253.12,0.0049719341885301
253.15,0.0049719341921681
253.18,0.004971934192519
253.2,0.0049719341926036
253.22,0.0049719341926219
262.0,0.0049719341926066
262.02,0.0049719341924113
262.05,0.0049719341907041
262.07,0.0049719341853587
262.1,0.0049719341377678
262.12,0.0049719340078801
262.15,0.0049719336090538
262.18,0.0049719305485136
262.2,0.0049719238617633
262.23,0.0049718821499721
262.25,0.0049717023391527
262.27,0.0049714244204808
262.3,0.0049700584756967
262.32,0.0049684022095703
262.35,0.0049609172745613
262.38,0.00495519652768
262.4,0.0049539379418305
262.43,0.0049233350134282
262.45,0.0049465174746091
262.48,0.0049470128114977
262.5,0.0052070312903014
262.52,0.0056144480475798
262.55,0.0065140887011463
262.57,0.0087203590419668
