Wavelength (nm),Normalized
449.28,0.0003018720249063
449.32,0.0003018716370608
449.37,0.0003018713764678
449.41,0.0003018712431272
449.45,0.000301871237039
449.49,0.0003018713582033
449.53,0.0003018705779818
449.58,0.0003018656602721
449.62,0.0003018505278434
449.66,0.0003018026062749
449.7,0.0003016579704504
449.74,0.0003009827934754
449.79,0.0002995406156799
449.83,0.0002963691087813
449.87,0.0002897978444782
449.91,0.0002775992758407
449.96,0.0002358967976471
450.0,0.0001994996146565
450.04,0.000194739407879
450.08,0.0002900091483771
450.12,0.0004325410071429
450.17,0.0012522524403857
450.21,0.0031965358695731
450.25,0.0068501174907848
450.29,0.0128670512077785
450.34,0.0214942053381373
450.38,0.0338255525638358
450.42,0.0494499204841717
450.46,0.0671798574722756
450.5,0.0851346453202663
450.55,0.1013217341649156
450.59,0.1130489253473987
450.63,0.1183655978679087
450.67,0.1164117098759232
450.71,0.1077110149139323
450.76,0.0930542137857942
450.8,0.0755563613597162
450.84,0.0572834680108414
450.88,0.0403905166795887
450.93,0.02643656530952
450.97,0.0161814369471947
451.01,0.0088637135837178
451.05,0.0043057543179445
451.09,0.0018770310883925
451.14,0.0009415146326683
451.18,0.0003947443645321
451.22,0.0002061936770972
451.26,0.0001801947098178
451.3,0.000215535210068
451.35,0.000268580248418
451.39,0.0002843133599105
451.43,0.0002934584663523
451.47,0.0002981478793032
451.52,0.0003003974708945
451.56,0.0003015027415188
451.6,0.0003017480511432
451.64,0.0003018324959335
451.68,0.0003018601904056
451.73,0.0003018695575344
451.77,0.0003018710972251
451.81,0.0003018714860369
451.85,0.0003018715779281
451.9,0.0003018715985281
451.94,0.000301871603236
451.98,0.0003018716037637
452.02,0.0003018716038577
452.06,0.0003018716038736
452.11,0.0003018716038763
452.15,0.0003018716038765
452.19,0.0003018716038765
452.23,0.0003018716038765
452.27,0.0003018716038765
452.32,0.0003018716038765
452.36,0.0003018716038765
452.4,0.0003018716038765
452.44,0.0003018716038765
452.49,0.0003018716038765
452.53,0.0003018716038765
452.57,0.0003018716038765
452.61,0.0003018716038765
452.65,0.0003018716038765
452.7,0.0003018716038765
452.74,0.0003018716038765
452.78,0.0003018716038765
452.82,0.0003018716038765
452.86,0.0003018716038765
452.91,0.0003018716038765
452.95,0.0003018716038765
452.99,0.0003018716038765
453.03,0.0003018716038765
453.08,0.0003018716038765
453.12,0.0003018716038765
453.16,0.0003018716038765
453.2,0.0003018716038765
453.24,0.0003018716038765
453.29,0.0003018716038765
453.33,0.0003018716038765
453.37,0.0003018716038765
453.41,0.0003018716038765
453.46,0.0003018716038765
453.5,0.0003018716038765
453.54,0.0003018716038765
453.58,0.0003018716038765
453.62,0.0003018716038765
453.67,0.0003018716038765
453.71,0.0003018716038765
453.75,0.0003018716038765
453.79,0.0003018716038765
453.83,0.0003018716038765
453.88,0.0003018716038765
453.92,0.0003018716038765
453.96,0.0003018716038765
454.0,0.0003018716038765
454.05,0.0003018716038765
454.09,0.0003018716038765
454.13,0.0003018716038765
454.17,0.0003018716038765
454.21,0.0003018716038765
454.26,0.0003018716038765
454.3,0.0003018716038765
454.34,0.0003018716038765
454.38,0.0003018716038765
454.42,0.0003018716038765
454.47,0.0003018716038765
454.51,0.0003018716038765
454.55,0.0003018716038765
454.59,0.0003018716038765
454.64,0.0003018716038765
454.68,0.0003018716038765
454.72,0.0003018716038765
454.76,0.0003018716038765
454.8,0.0003018716038765
454.85,0.0003018716038765
454.89,0.0003018716038765
454.93,0.0003018716038765
454.97,0.0003018716038765
455.02,0.0003018716038765
455.06,0.0003018716038765
455.1,0.0003018716038765
455.14,0.0003018716038765
455.18,0.0003018716038765
455.23,0.0003018716038765
455.27,0.0003018716038765
455.31,0.0003018716038765
455.35,0.0003018716038765
455.39,0.0003018716038765
455.44,0.0003018716038765
455.48,0.0003018716038765
455.52,0.0003018716038765
455.56,0.0003018716038765
455.61,0.0003018716038765
455.65,0.0003018716038766
455.69,0.0003018716038766
455.73,0.0003018716038766
455.77,0.0003018716038766
455.82,0.0003018716038766
455.86,0.0003018716038766
455.9,0.0003018716038766
455.94,0.0003018716038766
455.98,0.0003018716038766
456.03,0.0003018716038766
456.07,0.0003018716038766
456.11,0.0003018716038766
456.15,0.0003018716038766
456.2,0.0003018716038766
456.24,0.0003018716038766
456.28,0.0003018716038766
456.32,0.0003018716038766
456.36,0.0003018716038766
456.41,0.0003018716038766
456.45,0.0003018716038766
456.49,0.0003018716038766
456.53,0.0003018716038766
456.58,0.0003018716038766
456.62,0.0003018716038766
456.66,0.0003018716038766
456.7,0.0003018716038766
456.74,0.0003018716038766
456.79,0.0003018716038766
456.83,0.0003018716038766
456.87,0.0003018716038766
456.91,0.0003018716038766
456.95,0.0003018716038766
457.0,0.0003018716038766
457.04,0.0003018716038766
457.08,0.0003018716038766
457.12,0.0003018716038766
457.17,0.0003018716038766
457.21,0.0003018716038766
457.25,0.0003018716038766
457.29,0.0003018716038766
457.33,0.0003018716038766
457.38,0.0003018716038766
457.42,0.0003018716038766
457.46,0.0003018716038766
457.5,0.0003018716038766
457.54,0.0003018716038766
457.59,0.0003018716038766
457.63,0.0003018716038766
457.67,0.0003018716038766
457.71,0.0003018716038766
457.76,0.0003018716038766
457.8,0.0003018716038766
457.84,0.0003018716038766
457.88,0.0003018716038766
457.92,0.0003018716038766
457.97,0.0003018716038766
458.01,0.0003018716038766
458.05,0.0003018716038766
458.09,0.0003018716038766
458.14,0.0003018716038766
458.18,0.0003018716038766
458.22,0.0003018716038766
458.26,0.0003018716038766
458.3,0.0003018716038766
458.35,0.0003018716038766
458.39,0.0003018716038766
458.43,0.0003018716038766
458.47,0.0003018716038766
458.51,0.0003018716038766
458.56,0.0003018716038766
458.6,0.0003018716038766
458.64,0.0003018716038766
458.68,0.0003018716038766
458.73,0.0003018716038766
458.77,0.0003018716038766
458.81,0.0003018716038766
458.85,0.0003018716038766
458.89,0.0003018716038766
458.94,0.0003018716038766
458.98,0.0003018716038766
459.02,0.0003018716038766
459.06,0.0003018716038766
459.1,0.0003018716038766
459.15,0.0003018716038766
459.19,0.0003018716038766
459.23,0.0003018716038766
459.27,0.0003018716038766
459.32,0.0003018716038766
459.36,0.0003018716038766
459.4,0.0003018716038766
459.44,0.0003018716038766
459.48,0.0003018716038766
459.53,0.0003018716038766
459.57,0.0003018716038766
459.61,0.0003018716038766
459.65,0.0003018716038766
459.7,0.0003018716038766
459.74,0.0003018716038766
459.78,0.0003018716038766
459.82,0.0003018716038766
459.86,0.0003018716038766
459.91,0.0003018716038766
459.95,0.0003018716038766
459.99,0.0003018716038766
460.03,0.0003018716038766
460.07,0.0003018716038766
460.12,0.0003018716038766
460.16,0.0003018716038766
460.2,0.0003018716038766
460.24,0.0003018716038766
460.29,0.0003018716038766
460.33,0.0003018716038766
460.37,0.0003018716038766
460.41,0.0003018716038766
460.45,0.0003018716038766
460.5,0.0003018716038766
460.54,0.0003018716038766
460.58,0.0003018716038766
460.62,0.0003018716038766
460.66,0.0003018716038766
460.71,0.0003018716038766
460.75,0.0003018716038766
460.79,0.0003018716038766
460.83,0.0003018716038766
460.88,0.0003018716038766
460.92,0.0003018716038766
460.96,0.0003018716038766
461.0,0.0003018716038766
461.04,0.0003018716038766
461.09,0.0003018716038766
461.13,0.0003018716038766
461.17,0.0003018716038766
461.21,0.0003018716038766
461.26,0.0003018716038766
461.3,0.0003018716038766
461.34,0.0003018716038766
461.38,0.0003018716038766
461.42,0.0003018716038766
461.47,0.0003018716038766
461.51,0.0003018716038766
461.55,0.0003018716038766
461.59,0.0003018716038766
461.63,0.0003018716038766
461.68,0.0003018716038765
461.72,0.0003018716038761
461.76,0.0003018716038733
461.8,0.0003018716038561
461.85,0.0003018716036821
461.89,0.0003018716028218
461.93,0.000301871598492
461.97,0.0003018715777548
462.01,0.0003018714844145
462.06,0.0003018708303756
462.1,0.0003018685719573
462.14,0.0003018605285481
462.18,0.0003018331298126
462.22,0.0003016892636515
462.27,0.0003013285191302
462.31,0.0003003900492828
462.35,0.0002980496824256
462.39,0.0002926408699348
462.44,0.0002720517995965
462.48,0.0002422116038749
462.52,0.0002012648286269
462.56,0.0001582770108856
462.6,5.823524429253338e-07
462.65,9.258891767361727e-05
462.69,0.0007284330061621
462.73,0.0024395568801414
462.77,0.0060654892517549
462.82,0.0119190247737775
462.86,0.023316669084125
462.9,0.0416478257645555
462.94,0.0677563017347755
462.98,0.1014706163695707
463.03,0.141173431147259
463.07,0.1842219021505864
463.11,0.225517570255182
463.15,0.2594359955234989
463.19,0.2817425549259988
463.24,0.2867124729372887
463.28,0.2755124550447646
463.32,0.2493353722387926
463.36,0.2122586574274938
463.41,0.1698684533188334
463.45,0.1271041712143303
463.49,0.0888265189478143
463.53,0.0576083834411237
463.57,0.0346689421166681
463.62,0.0198945105452559
463.66,0.0099415688086221
463.7,0.0042308699296194
463.74,0.0013825718517163
463.78,0.0003009877371282
463.83,0.0002285297394594
463.87,0.0001335574627876
463.91,0.0001559161426893
463.95,0.0002049410557271
464.0,0.0002494209096342
464.04,0.0002844294868297
464.08,0.0002939506363696
464.12,0.000298236437349
464.16,0.0002992252361411
464.21,0.0002982069181283
464.25,0.0002946154707562
464.29,0.0002878226745886
464.33,0.000277112410853
464.38,0.0002400628895385
464.42,0.0002232746059352
464.46,0.0002639101077562
464.5,0.0004409719658276
464.54,0.0009011622629751
464.59,0.0016644842729407
464.63,0.0035233078186687
464.67,0.0069189825322536
464.71,0.0122935053537244
464.75,0.0197455499919195
464.8,0.0298718819920011
464.84,0.0421887963065512
464.88,0.0556511496155193
464.92,0.0687856851436874
464.97,0.0801436224409505
465.01,0.0874848347390535
465.05,0.0901222287417529
465.09,0.0874848347390535
465.13,0.0799747440760223
465.18,0.0688279047349194
465.22,0.0558575565059871
465.26,0.0425124798393303
465.3,0.0302659315101668
465.34,0.0201630548385476
465.39,0.0126875548718902
465.43,0.0072426660650326
465.47,0.0037297147091365
465.51,0.0017067038641728
465.56,0.0007322838980469
465.6,0.0004409719658276
465.64,0.0002639101964529
465.68,0.0002232750006351
465.72,0.0002400651462269
465.77,0.0002771207097424
465.81,0.0002878513740801
465.85,0.0002947101117688
465.89,0.0002985016009604
465.94,0.0003004588301761
465.98,0.0003014963373662
466.02,0.000301737511442
466.06,0.0003018262104688
466.1,0.0003018574313819
466.15,0.0003018688489897
466.19,0.0003018708689302
466.23,0.0003018714187938
466.27,0.0003018715595348
466.31,0.0003018715939201
466.36,0.0003018716025511
466.4,0.0003018716036209
466.44,0.00030187160383
466.48,0.0003018716038685
466.53,0.0003018716038752
466.57,0.0003018716038764
466.61,0.0003018716038765
466.65,0.0003018716038765
466.69,0.0003018716038765
466.74,0.0003018716038765
466.78,0.0003018716038765
466.82,0.0003018716038765
466.86,0.0003018716038765
466.9,0.0003018716038765
466.95,0.0003018716038765
466.99,0.0003018716038765
467.03,0.0003018716038765
467.07,0.0003018716038765
467.12,0.0003018716038765
467.16,0.0003018716038765
467.2,0.0003018716038765
467.24,0.0003018716038765
467.28,0.0003018716038765
467.33,0.0003018716038765
467.37,0.0003018716038765
467.41,0.0003018716038765
467.45,0.0003018716038765
467.5,0.0003018716038765
467.54,0.0003018716038765
467.58,0.0003018716038765
467.62,0.0003018716038765
467.66,0.0003018716038765
467.71,0.0003018716038765
467.75,0.0003018716038765
467.79,0.0003018716038765
467.83,0.0003018716038765
467.87,0.0003018716038765
467.92,0.0003018716038765
467.96,0.0003018716038765
468.0,0.0003018716038765
468.04,0.0003018716038765
468.09,0.0003018716038765
468.13,0.0003018716038765
468.17,0.0003018716038765
468.21,0.0003018716038765
468.25,0.0003018716038765
468.3,0.0003018716038765
468.34,0.0003018716038765
468.38,0.0003018716038765
468.42,0.0003018716038765
468.46,0.0003018716038765
468.51,0.0003018716038765
468.55,0.0003018716038765
468.59,0.0003018716038765
468.63,0.0003018716038765
468.68,0.0003018716038765
468.72,0.0003018716038765
468.76,0.0003018716038765
468.8,0.0003018716038765
468.84,0.0003018716038765
468.89,0.0003018716038765
468.93,0.0003018716038765
468.97,0.0003018716038765
469.01,0.0003018716038765
469.06,0.0003018716038765
469.1,0.0003018716038765
469.14,0.0003018716038765
469.18,0.0003018716038765
469.22,0.0003018716038765
469.27,0.0003018716038765
469.31,0.0003018716038765
469.35,0.0003018716038765
469.39,0.0003018716038765
469.43,0.0003018716038765
469.48,0.0003018716038765
469.52,0.0003018716038765
469.56,0.0003018716038765
469.6,0.0003018716038765
469.65,0.0003018716038765
469.69,0.0003018716038765
469.73,0.0003018716038765
469.77,0.0003018716038765
469.81,0.0003018716038765
469.86,0.0003018716038765
469.98,0.0003018716038765
470.02,0.0003018716038765
470.07,0.0003018716038765
470.11,0.0003018716038765
470.15,0.0003018716038765
470.19,0.0003018716038765
470.24,0.0003018716038765
470.28,0.0003018716038765
470.32,0.0003018716038765
470.36,0.0003018716038765
470.4,0.0003018716038765
470.45,0.0003018716038765
470.49,0.0003018716038765
470.53,0.0003018716038765
470.57,0.0003018716038765
470.62,0.0003018716038765
470.66,0.0003018716038765
470.7,0.0003018716038765
470.74,0.0003018716038765
470.78,0.0003018716038765
470.83,0.0003018716038765
470.87,0.0003018716038765
470.91,0.0003018716038765
470.95,0.0003018716038765
470.99,0.0003018716038765
471.04,0.0003018716038765
471.08,0.0003018716038765
471.12,0.0003018716038765
471.16,0.0003018716038765
471.21,0.0003018716038765
471.25,0.0003018716038765
471.29,0.0003018716038765
471.33,0.0003018716038765
471.37,0.0003018716038765
471.42,0.0003018716038765
471.46,0.0003018716038765
471.5,0.0003018716038765
471.54,0.0003018716038765
471.58,0.0003018716038765
471.63,0.0003018716038765
471.67,0.0003018716038765
471.71,0.0003018716038765
471.75,0.0003018716038765
471.8,0.0003018716038765
471.84,0.0003018716038765
471.88,0.0003018716038765
471.92,0.0003018716038765
471.96,0.0003018716038765
472.01,0.0003018716038765
472.05,0.0003018716038765
472.09,0.0003018716038765
472.13,0.0003018716038765
472.18,0.0003018716038765
472.22,0.0003018716038765
472.26,0.0003018716038765
472.3,0.0003018716038765
472.34,0.0003018716038765
472.39,0.0003018716038765
472.43,0.0003018716038765
472.47,0.0003018716038765
472.51,0.0003018716038765
472.55,0.0003018716038765
472.6,0.0003018716038765
472.64,0.0003018716038765
472.68,0.0003018716038765
472.72,0.0003018716038765
472.77,0.0003018716038765
472.81,0.0003018716038765
472.85,0.0003018716038765
472.89,0.0003018716038765
472.93,0.0003018716038765
472.98,0.0003018716038765
473.02,0.0003018716038765
473.06,0.0003018716038765
473.1,0.0003018716038765
473.14,0.0003018716038765
473.19,0.0003018716038765
473.23,0.0003018716038765
473.27,0.0003018716038765
473.31,0.0003018716038765
473.36,0.0003018716038765
473.4,0.0003018716038765
473.44,0.0003018716038765
473.48,0.0003018716038765
473.52,0.0003018716038765
473.57,0.0003018716038765
473.61,0.0003018716038765
473.65,0.0003018716038765
473.69,0.0003018716038765
473.74,0.0003018716038765
473.78,0.0003018716038765
473.82,0.0003018716038765
473.86,0.0003018716038765
473.9,0.0003018716038765
473.95,0.0003018716038765
473.99,0.0003018716038765
474.03,0.0003018716038765
474.07,0.0003018716038765
474.11,0.0003018716038765
474.16,0.0003018716038765
474.2,0.0003018716038765
474.24,0.0003018716038765
474.28,0.0003018716038765
474.33,0.0003018716038765
474.37,0.0003018716038765
474.41,0.0003018716038765
474.45,0.0003018716038765
474.49,0.0003018716038765
474.54,0.0003018716038765
474.58,0.0003018716038765
474.62,0.0003018716038765
474.66,0.0003018716038765
474.7,0.0003018716038765
474.75,0.0003018716038765
474.79,0.0003018716038765
474.83,0.0003018716038765
474.87,0.0003018716038765
474.92,0.0003018716038765
474.96,0.0003018716038765
475.0,0.0003018716038765
475.04,0.0003018716038765
475.08,0.0003018716038765
475.13,0.0003018716038765
475.17,0.0003018716038765
475.21,0.0003018716038765
475.25,0.0003018716038765
475.3,0.0003018716038765
475.34,0.0003018716038765
475.38,0.0003018716038765
475.42,0.0003018716038765
475.46,0.0003018716038765
475.51,0.0003018716038765
475.55,0.0003018716038765
475.59,0.0003018716038765
475.63,0.0003018716038765
475.67,0.0003018716038765
475.72,0.0003018716038765
475.76,0.0003018716038765
475.8,0.0003018716038765
475.84,0.0003018716038765
475.89,0.0003018716038765
475.93,0.0003018716038765
475.97,0.0003018716038765
476.01,0.0003018716038765
476.05,0.0003018716038765
476.1,0.0003018716038765
476.14,0.0003018716038765
476.18,0.0003018716038765
476.22,0.0003018716038765
476.26,0.0003018716038765
476.31,0.0003018716038765
476.35,0.0003018716038765
476.39,0.0003018716038765
476.43,0.0003018716038765
476.48,0.0003018716038765
476.52,0.0003018716038765
476.56,0.0003018716038765
476.6,0.0003018716038765
476.64,0.0003018716038765
476.69,0.0003018716038765
476.73,0.0003018716038765
476.77,0.0003018716038765
476.81,0.0003018716038765
476.86,0.0003018716038765
476.9,0.0003018716038765
476.94,0.0003018716038765
476.98,0.0003018716038765
477.02,0.0003018716038765
477.07,0.0003018716038765
477.11,0.0003018716038765
477.15,0.0003018716038765
477.19,0.0003018716038765
477.23,0.0003018716038765
477.28,0.0003018716038765
477.32,0.0003018716038765
477.36,0.0003018716038765
477.4,0.0003018716038765
477.45,0.0003018716038765
477.49,0.0003018716038765
477.53,0.0003018716038765
477.57,0.0003018716038765
477.61,0.0003018716038765
477.66,0.0003018716038765
477.7,0.0003018716038765
477.74,0.0003018716038765
477.78,0.0003018716038765
477.82,0.0003018716038765
477.87,0.0003018716038765
477.91,0.0003018716038765
477.95,0.0003018716038765
477.99,0.0003018716038765
478.04,0.0003018716038765
478.08,0.0003018716038765
478.12,0.0003018716038765
478.16,0.0003018716038765
478.2,0.0003018716038765
478.25,0.0003018716038765
478.29,0.0003018716038765
478.33,0.0003018716038765
478.37,0.0003018716038765
478.42,0.0003018716038765
478.46,0.0003018716038765
478.5,0.0003018716038765
478.54,0.0003018716038765
478.58,0.0003018716038765
478.63,0.0003018716038765
478.67,0.0003018716038765
478.71,0.0003018716038764
478.75,0.0003018716038759
478.79,0.0003018716038731
480.78,0.0003018716038444
480.82,0.0003018716037039
480.86,0.0003018716029987
480.9,0.000301871599615
480.94,0.0003018715739895
480.99,0.0003018714776754
481.03,0.0003018711029941
481.07,0.0003018697050113
481.11,0.0003018647701241
481.16,0.0003018378215465
481.2,0.0003017667641203
481.24,0.0003015707810089
481.28,0.0003010497567418
481.32,0.0002988313544632
481.37,0.0002947140449169
481.41,0.0002868057508907
481.45,0.000272489737656
481.49,0.0002497511850505
481.54,0.0001686599035757
481.58,0.0001254012699713
481.62,0.000192413431652
481.66,0.0005307429534411
481.7,0.0014501870296886
481.75,0.0029196936625271
481.79,0.0068493302590044
481.83,0.014381230139778
481.87,0.0268011685352856
481.91,0.0444902705849512
481.96,0.0701686428463977
482.0,0.1034493394152221
482.04,0.1424703334179809
482.08,0.1840214970647545
482.13,0.2242753740887853
482.17,0.2569557423663165
482.21,0.2785315401698771
482.25,0.2854173544541515
482.29,0.2764619523643845
482.34,0.2533735815304097
482.38,0.2199900461580123
482.42,0.1802126670882462
482.46,0.1390581744375253
482.5,0.1010877229151946
482.55,0.0692554618651741
482.59,0.0438771059216739
482.63,0.0254864875197966
482.67,0.0133769133812627
482.72,0.0063535023546365
482.76,0.0031240744265333
482.8,0.0011412008718139
482.84,0.0003074305857083
482.88,9.683396354154992e-05
482.93,0.000199516572859
482.97,0.0002141332100879
483.01,0.0002432166813252
483.05,0.0002678807143662
483.1,0.0002850149632346
483.14,0.0002966341172298
483.18,0.000299660171692
483.22,0.0003009888525236
483.26,0.0003015494447496
483.31,0.0003017971621848
483.35,0.0003018482674613
483.39,0.0003018646629107
483.43,0.0003018696322261
483.47,0.0003018710795562
483.52,0.0003018715185039
483.56,0.0003018715842326
483.6,0.0003018715995921
483.64,0.0003018716029841
483.69,0.000301871603701
486.76,0.0003018716038564
486.81,0.0003018716038731
