Wavelength (nm),Normalized
200.0,0.0784946938870931
200.07,0.0631789949829652
200.14,0.0495003559171464
200.2,0.0374587766896367
200.27,0.0270542573004361
200.34,0.0182867977495446
200.41,0.0096700661875183
200.47,0.0041854584767766
200.54,0.0011931124565863
200.61,0.0001628119814139
200.68,0.0
200.74,0.0001048701707148
200.81,0.0002028331417787
200.88,0.0003109036050469
200.95,0.0003624447117737
201.01,0.0003819876286638
201.08,0.0003876454330663
201.15,0.0003898588461922
201.22,0.0003903950794555
201.28,0.0003905060279506
201.35,0.0003905246024601
201.42,0.000390528793491
201.49,0.0003905293761923
201.55,0.0003905294464234
201.62,0.00039052945343
203.92,0.0003905294543988
203.99,0.0003905294544779
204.05,0.0003905294544836
204.12,0.0003905294544839
204.19,0.0003905294544839
204.26,0.0003905294544839
204.32,0.0003905294544839
204.39,0.0003905294544839
204.46,0.0003905294544839
204.53,0.0003905294544839
204.59,0.0003905294544839
204.66,0.0003905294544839
204.73,0.0003905294544839
204.8,0.0003905294544839
204.86,0.0003905294544839
204.93,0.0003905294544839
205.0,0.0003905294544839
205.07,0.0003905294544839
205.14,0.0003905294544839
205.2,0.0003905294544839
205.27,0.0003905294544839
205.34,0.0003905294544839
205.41,0.0003905294544839
205.47,0.0003905294544839
205.54,0.0003905294544839
205.61,0.0003905294544839
205.68,0.0003905294544839
205.74,0.0003905294544839
205.81,0.0003905294544839
205.88,0.0003905294544839
205.95,0.0003905294544839
206.01,0.0003905294544839
206.08,0.0003905294544839
206.15,0.0003905294544839
206.22,0.0003905294544839
206.28,0.0003905294544839
206.35,0.0003905294544839
206.42,0.0003905294544839
206.49,0.0003905294544839
206.55,0.0003905294544839
206.62,0.0003905294544839
206.69,0.0003905294544839
206.76,0.0003905294544839
206.82,0.0003905294544839
206.89,0.0003905294544839
206.96,0.0003905294544839
207.03,0.0003905294544839
207.09,0.0003905294544839
207.16,0.0003905294544839
207.23,0.0003905294544839
207.3,0.0003905294544839
207.36,0.0003905294544839
207.43,0.0003905294544839
207.5,0.0003905294544839
207.57,0.0003905294544839
207.64,0.0003905294544839
207.7,0.0003905294544839
207.77,0.0003905294544839
207.84,0.0003905294544839
207.91,0.0003905294544839
207.97,0.0003905294544839
208.04,0.0003905294544839
208.11,0.0003905294544839
208.18,0.0003905294544837
208.24,0.0003905294544826
233.51,0.0003905294544719
233.58,0.0003905294543818
233.65,0.0003905294537038
233.72,0.0003905294504568
233.78,0.0003905294286102
233.85,0.00039052930411
233.92,0.000390528669158
233.99,0.0003905265733199
234.05,0.0003905168566151
234.12,0.0003904796230003
234.19,0.0003903535921089
234.26,0.0003900846506697
234.32,0.0003892470108635
234.39,0.0003872015180686
234.46,0.0003830506239683
234.53,0.0003794611980909
234.59,0.0003741452525774
234.66,0.0003748852155993
234.73,0.0004020524295313
234.8,0.0004953617081732
234.86,0.0007332170346389
234.93,0.001148164148877
235.0,0.0018072089890949
235.07,0.0027403204095075
235.14,0.0039024878883871
235.2,0.0051771050207707
235.27,0.0063785908756351
235.34,0.0072976115729405
235.41,0.0077406847966697
235.47,0.0076514391430508
235.54,0.0070441808151054
235.61,0.0059994784447278
235.68,0.0047524172723129
235.74,0.0035176358236413
235.81,0.0025229846976327
235.88,0.0019959506495402
235.95,0.002224259301647
236.01,0.0032657163164638
236.08,0.0053047644440585
236.15,0.0084868469414989
236.22,0.0127342669429726
236.28,0.017692286619482
236.35,0.0228486563204893
236.42,0.0274670019455141
236.49,0.0307362250010745
236.55,0.0322371288543326
236.62,0.0316974447416219
236.69,0.0290763214655683
236.76,0.0248973398080372
236.82,0.0199397749361108
236.89,0.0149536028559081
236.96,0.0105513218938925
237.03,0.0072121076615988
237.09,0.0050562689656709
237.16,0.003976913734666
237.23,0.0038702783029523
237.3,0.0043072902810306
237.36,0.0049195449621816
237.43,0.0054156198125824
237.5,0.005649733720332
237.57,0.0055515933885096
237.64,0.0053670271914835
237.7,0.0053147571504698
237.77,0.0059055548011115
237.84,0.0077807140971899
237.91,0.0115962549151658
237.97,0.0173718670448829
238.04,0.0249966886206089
238.11,0.0338463963967202
238.18,0.0427539780560295
238.24,0.0505698987717573
238.31,0.05614076762398
238.38,0.0585300510151995
238.45,0.0575713879261299
238.51,0.0539006926220555
238.58,0.0484204273399926
238.65,0.0419330622807612
238.72,0.0354443977798637
238.78,0.0296131890384681
238.85,0.0245838007770594
238.92,0.0203855224107886
238.99,0.0167109385275288
239.05,0.0133872883577892
239.12,0.0102974246364994
239.19,0.007600784308028
239.26,0.0052937208141998
239.32,0.0034521440936206
239.39,0.002084989594476
239.46,0.0012323346771364
239.53,0.0007445859829672
239.59,0.0004957472895496
239.66,0.0003746074899603
239.73,0.0003491590294577
239.8,0.000339869580876
239.86,0.000329561175112
239.93,0.0002934385160163
240.0,0.0002469643096933
240.07,0.0002452953393036
240.14,0.0005438532697446
240.2,0.0012483256257694
240.27,0.002812384130726
240.34,0.0058319047215072
240.41,0.0110156780229478
240.47,0.0184003000807421
240.54,0.0279233782032987
240.61,0.0388365480170249
240.68,0.049635428037904
240.74,0.0588487130949453
240.81,0.064840692007859
240.88,0.0662519506291859
240.95,0.0627816942020875
241.01,0.0553567657378376
241.08,0.0453665087740669
241.15,0.0342419496884457
241.22,0.0237577021787063
241.28,0.0150531813447943
241.35,0.0085504910603869
241.42,0.0044113994032294
241.49,0.0020632880480284
241.55,0.0008842027287753
241.62,0.000331196998694
241.69,0.0002465085678879
241.76,0.0002789287399295
241.82,0.0003239253362815
241.89,0.0003487443590888
241.96,0.0003727618392712
242.03,0.0003839238777425
242.09,0.00038830200925
242.16,0.0003896661328277
242.23,0.0003902886394251
242.3,0.0003904692126331
242.36,0.000390515741819
242.43,0.0003905257201912
242.5,0.0003905287372706
242.57,0.0003905293300481
242.64,0.0003905294348671
242.7,0.0003905294506251
242.77,0.0003905294539676
242.84,0.0003905294544203
245.88,0.0003905294544708
245.95,0.0003905294544474
246.01,0.0003905294542213
246.08,0.0003905294527273
246.15,0.0003905294437962
246.22,0.0003905294090804
246.28,0.0003905292182799
246.35,0.0003905283308615
246.42,0.0003905246176317
246.49,0.0003905144944708
246.55,0.0003904748744925
246.62,0.0003903472458021
246.69,0.0003899844603519
246.76,0.0003893583923208
246.82,0.0003876742388621
246.89,0.0003842514408576
246.96,0.0003788282870724
247.03,0.0003783621847147
247.09,0.0003823296034624
247.16,0.0004075319021539
247.23,0.0004873963925983
247.3,0.0006755967407305
247.36,0.0010605717813869
247.43,0.0016684937211967
247.5,0.0025500876722365
247.57,0.003703907537854
247.64,0.0050445421543563
247.7,0.0064284199154792
247.77,0.0076471867201989
247.84,0.0084948092703072
247.91,0.008797988502603
247.97,0.0085381716387006
248.04,0.0077638603387822
248.11,0.006575666472719
248.18,0.0051943463376552
248.24,0.0038286360704642
248.31,0.0026292257488008
248.38,0.0016982082811748
248.45,0.0011032914004519
248.51,0.0008082531701934
248.58,0.0008527720416695
248.65,0.001390893575777
248.72,0.0026960722767025
248.78,0.0048190026124397
248.85,0.0080287736128986
248.92,0.0125357950958185
248.99,0.0185162093027654
249.05,0.0256617233736275
249.12,0.0337882788682097
249.19,0.0424944373234811
249.26,0.0512898479295798
249.32,0.0595643091231868
249.39,0.0666745615450011
249.46,0.0717315986764575
249.53,0.0742208091317901
249.59,0.0740878762493613
249.66,0.0715380468403112
249.73,0.0670446425314695
249.8,0.0618806613509037
249.86,0.0575178509294919
249.93,0.0549867659664735
250.0,0.0551162553284874
250.07,0.0580397716746289
250.14,0.0630318692088284
250.2,0.0689061252040135
250.27,0.0743352899425621
250.34,0.0778962798839869
250.41,0.0786690253566978
250.47,0.0766776959756817
250.54,0.0723422063152969
250.61,0.0662397033914842
250.68,0.0593090987799903
250.74,0.0524178672509752
250.81,0.0459955067610839
250.88,0.040306291259133
250.95,0.0353035707893142
251.01,0.0309496615433143
251.08,0.0271400884111894
251.15,0.0239850440462136
251.22,0.0212628794348184
251.28,0.0188956248284412
251.35,0.0166865285158335
251.42,0.0145736526099867
251.49,0.0123646407610873
251.55,0.0100768645550468
251.62,0.0077840250745548
251.69,0.0056784114233187
251.76,0.0038901474157458
251.82,0.0024881326975701
251.89,0.0015243936644929
251.96,0.0011405857011257
252.03,0.001563769995576
252.09,0.0028420583755263
252.16,0.0053600400936456
252.23,0.0095760834517922
252.3,0.0157543993758623
252.36,0.0238366153219182
252.43,0.0331923744118207
252.5,0.0427951053847575
252.57,0.0512947403274522
252.64,0.0571622587175992
252.7,0.0596511118264736
252.77,0.0580523762587888
252.84,0.0527266795628931
252.91,0.0446080214250359
252.97,0.0351759623691118
253.04,0.0257837799293121
253.11,0.0174733859250368
253.18,0.0109767818355603
253.24,0.0064310782482674
253.31,0.0036082166535719
253.38,0.0024268097713301
253.45,0.00234305425875
253.51,0.0029426946099286
253.58,0.00393365857021
253.65,0.0051818697484994
253.72,0.0064193280470028
253.78,0.0074868453644307
253.85,0.0082896794089171
253.92,0.0087959158931458
253.99,0.0091054428979799
254.05,0.0093341446311907
254.12,0.0096512278893124
254.19,0.0101561324458335
254.26,0.0109413882931834
254.32,0.0119565348628685
254.39,0.0131500135581872
254.46,0.0144715749699165
254.53,0.0159035142053574
254.59,0.0174049898129485
254.66,0.018947660969955
254.73,0.0203871629558919
254.8,0.0215278323419055
254.86,0.0220571274184969
254.93,0.0218230947258515
255.0,0.0206285862230125
255.07,0.0185041452863386
255.14,0.0156576565935516
255.2,0.0124714093855718
255.27,0.0093392449397296
255.34,0.0066923894700857
255.41,0.0049330039292369
255.47,0.0041919323471341
255.54,0.0046254585729434
255.61,0.0064080164073006
255.68,0.0094635917613505
255.74,0.0134777262491366
255.81,0.0180510624634564
255.88,0.0226022237057464
255.95,0.0263515189875911
256.01,0.0287926078694287
256.08,0.0294905834686796
256.15,0.0281991366175593
256.22,0.0251883627635479
256.28,0.0210602964790936
256.35,0.0165113053043858
256.42,0.012203233863153
256.49,0.008926691702409
256.55,0.0070308712838418
256.62,0.0068486570762311
256.69,0.0087011411152383
256.76,0.0125592483935872
256.82,0.0179962520139858
256.89,0.0244988075462924
256.96,0.0313206488903446
257.03,0.0374325240371732
257.09,0.0420667748281895
257.16,0.0446592908959667
257.23,0.0449483841806035
257.3,0.0434312535495416
257.36,0.0409704034085688
257.43,0.0384903540169813
257.5,0.036634361485476
257.57,0.0358481343054807
257.64,0.0359064467502411
257.7,0.0363289602079313
257.77,0.0364733606630623
257.84,0.0356544525251678
257.91,0.0335454587012981
257.97,0.0303300552709381
258.04,0.0264443673432289
258.11,0.022463722715779
258.18,0.0190204946753327
258.24,0.016482197811068
258.31,0.0149993399539461
258.38,0.0146632393670429
258.45,0.0154077219835189
258.51,0.0169898896699626
258.58,0.0194571395611403
258.65,0.0230516226115055
258.72,0.0280132482386381
258.78,0.0342389707184264
258.85,0.0415774700688684
258.92,0.0494162869467506
258.99,0.0566934851366004
259.05,0.0624738564714191
259.12,0.0656725295903298
259.19,0.0653568952096657
259.26,0.0613263195362008
259.32,0.054301602862049
259.39,0.045251183326212
259.46,0.0352444429449084
259.53,0.0256192121395253
259.59,0.0173362818348603
259.66,0.0108678269004729
259.73,0.006544980807498
259.8,0.0040699180233037
259.86,0.0030722554412342
259.93,0.0030912727700157
260.0,0.0039845674460786
260.07,0.005307964319161
260.14,0.0067582776597587
260.2,0.0080971671261036
260.27,0.0091116769693724
260.34,0.0096067999787529
260.41,0.0094835122020898
260.47,0.008807718072077
260.54,0.007698925939292
260.61,0.0063015859625097
260.68,0.0048398407838556
260.74,0.0034968606751462
260.81,0.0023799382607177
260.88,0.0015574105280627
260.95,0.0010133612659355
261.01,0.0006893656278717
261.08,0.0005317823370395
261.15,0.0005487043161346
261.22,0.0007490457349855
261.28,0.0011233755708412
261.35,0.0017389600712612
261.42,0.0026806069717149
261.49,0.0040515851754197
261.55,0.0058095302851817
261.62,0.0079677882166313
261.69,0.0104858241864401
261.76,0.0133329424587142
261.82,0.0163492681772435
261.89,0.0194517338838099
261.96,0.0224908648035769
262.03,0.0253819795717774
262.09,0.0280092784443485
262.16,0.0302752838047174
262.23,0.0319858688138006
262.3,0.0330791540594647
262.36,0.0334495599063495
262.43,0.0331422419523475
262.5,0.0321012917197804
262.57,0.0304321913858833
262.64,0.0282156362781129
262.7,0.0256658328578961
262.77,0.0229082292236657
262.84,0.0200712426980612
262.91,0.017224887198045
262.97,0.0144844946686804
263.04,0.0118806767070134
263.11,0.0095175120932799
263.18,0.0073880754531211
263.24,0.0055315326080703
263.31,0.0039590698017089
263.38,0.0027510396337542
263.45,0.0018529145756725
263.51,0.0012232059240083
263.58,0.0008014585911355
263.65,0.0005760897438761
263.72,0.0004609456577951
263.78,0.0004074494853911
263.85,0.0003824990483166
263.92,0.0003813989791733
263.99,0.000384308902541
264.05,0.0003869645850393
264.12,0.000388272908184
264.19,0.0003895525022301
264.26,0.0003901529282965
264.32,0.0003903952981454
264.39,0.0003904737468236
264.46,0.0003905125750948
264.53,0.0003905248049504
264.59,0.0003905282700201
264.66,0.0003905290921026
264.73,0.0003905293743987
264.8,0.0003905294382842
264.86,0.0003905294514262
264.93,0.0003905294535659
265.0,0.0003905294531033
265.07,0.0003905294477066
265.14,0.0003905294287198
265.2,0.0003905293342341
265.27,0.0003905289348518
265.34,0.0003905273976808
265.41,0.000390523514949
265.47,0.0003905090669431
265.54,0.0003904644096941
265.61,0.0003903411010646
265.68,0.0003901334015844
265.74,0.0003895638734872
265.81,0.0003883566892082
265.88,0.0003862387262488
265.95,0.0003853611176983
266.01,0.0003843886652007
266.08,0.0003876009079991
266.15,0.0004051711346852
266.22,0.0004697537412061
266.28,0.0005897875905414
266.35,0.0008116046381606
266.42,0.0011960438572947
266.49,0.0018435361803087
266.55,0.0027592046754624
266.62,0.0040056752516402
266.69,0.0056148008300257
266.76,0.0076040153697304
266.82,0.0098640959258233
266.89,0.0123005230606842
266.96,0.0147344650133589
267.03,0.0169878365521304
267.09,0.0188873408878207
267.16,0.0203007825711465
267.23,0.0211017389224256
267.3,0.0213659868824089
267.36,0.0212602448168406
267.43,0.0209921050290677
267.5,0.0207375119206624
267.57,0.0206931684738112
267.64,0.0208720041330904
267.7,0.0212071626247857
267.77,0.0214897587010926
267.84,0.0214488912606978
267.91,0.020809280083874
267.97,0.0195196621968985
268.04,0.017584049625915
268.11,0.0151255937062118
268.18,0.0123933649191136
268.24,0.009689590655896
268.31,0.007261551416989
268.38,0.0053531134198451
268.45,0.0040959750773105
268.51,0.0034917217082177
268.58,0.0035080849273964
268.65,0.0041347601624356
268.72,0.0051839878384149
268.78,0.0064518303316729
268.85,0.0077274954637601
268.92,0.0088162716468432
268.99,0.0095402685654552
269.05,0.0098397736264405
269.12,0.0097388719810779
269.19,0.0093140909976806
269.26,0.0087942753480425
269.32,0.0083482225045732
269.39,0.008181007102392
269.46,0.0084790925233573
269.53,0.0095080748981808
269.59,0.0112832161692294
269.66,0.0139864446669473
269.73,0.0177803562783931
269.8,0.0226875352997215
269.86,0.0285281487501746
269.93,0.0348473368203921
270.0,0.0409510937054124
270.07,0.0460499208808464
270.14,0.0492567804822527
270.2,0.050215281141114
270.27,0.0485083670547372
270.34,0.0443766038587432
270.41,0.0383512780240766
270.47,0.0313529562587648
270.54,0.0241996988150152
270.61,0.0175891986635164
270.68,0.0120363303269716
270.74,0.0077414384728359
270.81,0.0046485658943685
270.88,0.0028005681777131
270.95,0.0018968584766975
271.01,0.001679370925064
271.08,0.0020021359918702
271.15,0.0028814291839823
271.22,0.0041909772575096
271.28,0.0058013818113549
271.35,0.0075765848058826
271.42,0.0093194089626986
271.49,0.0107673443250475
271.55,0.0117368480062154
271.62,0.0120738582022848
271.69,0.0116925922716767
271.76,0.0107853578351421
271.82,0.0095796319021216
271.89,0.0085278963037269
271.96,0.0082088476400854
272.03,0.0095295709119401
272.09,0.0127969455117306
272.16,0.0185908797689379
272.23,0.0272348729349094
272.3,0.0385232688743803
272.36,0.0517135243875611
272.43,0.0654960264288411
272.5,0.078334094267294
272.57,0.0888606438010273
272.64,0.0961281611504657
272.7,0.1000093660044273
272.77,0.1005595171197574
272.84,0.0989294000358394
272.91,0.0962451758724863
272.97,0.0935094938191608
273.04,0.0911830059464493
273.11,0.0891775126512742
273.18,0.0871199442313352
273.24,0.0846862199351396
273.31,0.0814950186058082
273.38,0.0774569061706807
273.45,0.0724650360387728
273.51,0.0668468025378255
273.58,0.0606875140132099
273.65,0.0540979803529915
273.72,0.0470220461855754
273.78,0.039697129249147
273.85,0.0322718044551891
273.92,0.0251879599366314
273.99,0.0186981064466096
274.05,0.0131175541550921
274.12,0.0085900859575582
274.19,0.0053328759153393
274.26,0.0031435002543147
274.32,0.0017816967584925
274.39,0.0010329633434667
274.46,0.0009201539395376
274.53,0.0014295399455042
274.59,0.0025203513790966
274.66,0.0044223327754627
274.73,0.0074619721017815
274.8,0.0118883440625634
274.86,0.0179375445389589
274.93,0.0253078269331088
275.0,0.0337010181117356
275.07,0.0426458450177958
275.14,0.0515902853399604
275.2,0.0599075891252945
275.27,0.0670084530810722
275.34,0.0727109553740576
275.41,0.0769366422136679
275.47,0.0797976554156763
275.54,0.0814184490056409
275.61,0.0816989334892406
275.68,0.080939312377356
275.74,0.0794327397098301
275.81,0.0775461128410496
275.88,0.0756583489608113
275.95,0.0742620988907263
276.01,0.0736119557391998
276.08,0.0737517431764165
276.15,0.074498402357683
276.22,0.0754314989319746
276.28,0.07613972712597
276.35,0.0764165406868633
276.42,0.0764253444041503
276.49,0.0767211298133667
276.55,0.0777950858642495
276.62,0.0802171801575347
276.69,0.0841026081969107
276.76,0.0888670435512322
276.82,0.0936434662549224
276.89,0.0970099622649931
276.96,0.0975326626751296
277.03,0.094101324525927
277.09,0.0868327026510725
277.16,0.076330712564826
277.23,0.0637956485340441
277.3,0.0512193597164093
277.36,0.0409542253598275
277.43,0.03440961989521
277.5,0.0333815016490943
277.57,0.0387747693116205
277.64,0.0509212677982357
277.7,0.0684885821106956
277.77,0.0901463438713799
277.84,0.1131146575242785
277.91,0.1339174191547961
277.97,0.1499026307528956
278.04,0.1585482384751371
278.11,0.1578930924731965
278.18,0.148003789132455
278.24,0.1310196967257241
278.31,0.1094620569454028
278.38,0.0858046493770402
278.45,0.0630819172045933
278.51,0.0433787073771739
278.58,0.0276182504582248
278.65,0.0164536812388479
278.72,0.0090973671928863
278.78,0.0045974001188826
278.85,0.0019511983008827
278.92,0.0008638523677608
278.99,0.0004465148038827
279.05,0.0003168106974384
279.12,0.0002718593724256
279.19,0.0003173031209877
279.26,0.0003527740540689
279.32,0.000372741553929
279.39,0.000380856987911
279.46,0.0003867734680748
279.53,0.00038920715342
279.59,0.0003900939689399
279.66,0.0003903596947325
279.73,0.0003904808029269
279.8,0.0003905166441221
279.86,0.0003905263091138
279.93,0.0003905285162276
280.0,0.0003905292512404
280.07,0.0003905294138239
280.14,0.0003905294469129
280.2,0.000390529452722
280.27,0.0003905294541928
280.34,0.0003905294544392
280.41,0.0003905294544776
280.47,0.0003905294544831
280.54,0.0003905294544838
280.61,0.0003905294544839
280.68,0.0003905294544839
280.74,0.0003905294544839
280.81,0.0003905294544839
280.88,0.0003905294544839
280.95,0.0003905294544839
281.01,0.0003905294544839
281.08,0.0003905294544839
281.15,0.0003905294544839
281.22,0.0003905294544839
281.28,0.0003905294544839
281.35,0.0003905294544839
281.42,0.0003905294544839
281.49,0.0003905294544839
281.55,0.0003905294544839
281.62,0.0003905294544839
281.69,0.0003905294544839
281.76,0.0003905294544839
281.82,0.0003905294544839
281.89,0.0003905294544839
281.96,0.0003905294544839
282.03,0.0003905294544839
282.09,0.0003905294544839
282.16,0.0003905294544839
282.23,0.0003905294544839
282.3,0.0003905294544839
282.36,0.0003905294544839
282.43,0.0003905294544839
282.5,0.0003905294544839
282.57,0.0003905294544839
282.64,0.0003905294544839
