Wavelength (nm),Normalized
236.57,0.0001454580521852
236.6,0.0001454572676848
236.62,0.0001454567432941
236.65,0.0001454564790131
236.68,0.0001454564748417
236.7,0.0001454567307799
236.72,0.0001454538227201
236.75,0.0001454369955487
236.78,0.0001454015923624
236.8,0.0001451910131283
236.82,0.0001448336915494
236.85,0.0001441662959028
236.88,0.0001405142652882
236.9,0.0001297454923229
236.93,0.0001221691412835
236.95,0.0001224679359192
236.97,9.722050883931852e-05
237.0,0.0001479193120077
237.03,0.000223221295909
237.05,0.0004707936263291
237.07,0.0012783845532494
237.1,0.0027351788751091
237.12,0.0047916972324206
237.15,0.0076297179844044
237.18,0.0111205690129029
237.2,0.0148149737446476
237.22,0.0182517472244644
237.25,0.0208539408071332
237.28,0.0220946702304674
237.3,0.0220193117525366
237.32,0.0212594108002236
237.35,0.0202034664631495
237.38,0.0193232750849372
237.4,0.0196243931880098
237.43,0.0212991700202995
237.45,0.0239634189137545
237.47,0.0272113802025223
237.5,0.0297130312008929
237.53,0.0309257364179978
237.55,0.0302026543983269
237.57,0.0274620407952417
237.6,0.0231237250944625
237.62,0.0178644678096305
237.65,0.0126442346730159
237.68,0.0081982423794281
237.7,0.0049827712668028
237.72,0.003154658444845
237.75,0.0026977214427158
237.78,0.0043997068237207
237.8,0.0076044295522828
237.82,0.0124051402998645
237.85,0.0184407107858664
237.88,0.0251281691318108
237.9,0.0315136000635689
237.93,0.0362729867047628
237.95,0.0385813301392969
237.97,0.0381253460080953
238.0,0.0349023444926536
238.03,0.0299216652852264
238.05,0.0236041604381639
238.07,0.0172340886967632
238.1,0.0114883135936253
238.12,0.0070521910826558
238.15,0.0039591433457739
238.18,0.0017831702358115
238.2,0.0005898213229211
238.22,0.0002041277194447
238.25,0.0
238.28,6.432504227902793e-05
238.3,0.0001101870641247
238.32,0.0001136701248029
238.35,0.0001250401692335
238.38,0.0001392477049446
238.4,0.0001438748404703
238.43,0.0001447111674362
238.45,0.0001451433299837
238.47,0.0001453938369494
238.5,0.0001454461410188
238.53,0.0001454537167001
238.55,0.0001454567304754
238.57,0.0001454570764997
238.6,0.0001454571737736
238.62,0.0001454572040312
238.65,0.0001454572073285
238.68,0.0001454572075906
270.18,0.0001454572076366
270.2,0.0001454572076208
270.23,0.0001454572073332
270.25,0.0001454572050487
270.27,0.0001454571984349
270.3,0.0001454571438185
270.32,0.000145457005146
270.35,0.0001454560070625
270.38,0.0001454538356652
270.4,0.0001454484494692
270.43,0.0001454132679511
270.45,0.0001453531974902
270.48,0.0001450368941651
270.5,0.0001446098038628
270.52,0.0001425930550201
270.55,0.0001367959334469
270.57,0.0001329005285818
270.6,0.000116302164812
270.62,0.0001187679696773
270.65,0.0001548989861375
270.68,0.0001734133070289
270.7,0.0003623732148515
270.73,0.0006423195887725
270.75,0.0012369344827699
270.77,0.0026984103411715
270.8,0.0049170117383478
270.82,0.0084243635510248
270.85,0.0129818646120432
270.88,0.0185932518089321
270.9,0.0246714738866484
270.93,0.0306418331533519
270.95,0.0355967205950087
270.98,0.038931964860744
271.0,0.03993661751703
271.02,0.038931964860744
271.05,0.0355967205950087
271.07,0.0306418331533519
271.1,0.0246714738866484
271.12,0.0185932518089321
271.15,0.0129818646120432
271.18,0.0084243635510248
271.2,0.0049170117383478
271.23,0.0026984103411715
271.25,0.0012369344827699
271.27,0.0006423195887725
271.3,0.0003623732148515
271.32,0.0001734133070289
271.35,0.0001548989861375
271.38,0.0001187679696773
271.4,0.000116302164812
271.43,0.0001329005285818
271.45,0.0001367959334469
271.48,0.0001425930550201
271.5,0.0001446098038628
271.52,0.000145036894165
271.55,0.0001453531974885
271.57,0.0001454132679437
271.6,0.0001454484494002
271.62,0.0001454538353923
271.65,0.0001454560060372
271.68,0.0001454569971329
271.7,0.0001454571166927
271.73,0.0001454570238998
271.75,0.0001454562048412
271.77,0.0001454544797589
271.8,0.0001454438835695
271.82,0.0001454248351629
271.85,0.0001453210508886
271.88,0.0001451694587531
271.9,0.0001449221435071
271.93,0.0001434952411176
271.95,0.0001421522118405
271.98,0.0001359708816971
272.0,0.0001336453211721
272.02,0.0001192670681797
272.05,9.599442834179724e-05
272.07,0.0001503951154837
272.1,0.0002341596029386
272.12,0.0005713754405956
272.15,0.0012391690249898
272.18,0.0021718772582041
272.2,0.0037805537282754
272.23,0.0059625473490071
272.25,0.0089149250268488
272.27,0.0126049894587433
272.3,0.016725986337306
272.32,0.0207630902814128
272.35,0.0242690236776519
272.38,0.0266246077302877
272.4,0.0274225690699371
272.43,0.0266245968403342
272.45,0.0243683836130045
272.48,0.0209235973054332
272.5,0.0169094167133559
272.52,0.0129296952010063
272.55,0.0092979386291141
272.57,0.0062262734900866
272.6,0.003948674245457
272.62,0.0022061560874222
272.65,0.0011008588624239
272.68,0.0005707537113728
272.7,0.000233570097088
272.73,0.0001480399670292
272.75,8.918913394766394e-05
272.77,0.0001137074285606
272.8,0.0001262352310189
272.82,0.0001531236151026
272.85,0.0001946758660153
272.88,0.0003149450565053
272.9,0.0005419645294729
272.93,0.000850304359631
272.95,0.0013723481137351
272.98,0.0020641300113774
273.0,0.0030342279741443
273.02,0.0042066725977161
273.05,0.0055642512216568
273.07,0.0070474378357703
273.1,0.0085060382019613
273.12,0.0098177679438523
273.15,0.0108169081056978
273.18,0.011421383286274
273.2,0.0116041711550699
273.23,0.0113288840216001
273.25,0.0107196346854278
273.27,0.0098588274243711
273.3,0.00895344758381
273.32,0.0082833560776667
273.35,0.0079373495864394
273.38,0.0081062636545295
273.4,0.008798439986286
273.43,0.009951990976206
273.45,0.0112903880361254
273.48,0.0126557377308538
273.5,0.0136056901509193
273.52,0.0140426059736157
273.55,0.0137428534707067
273.57,0.012688812697497
273.6,0.0110304709829665
273.62,0.0090328211875807
273.65,0.0069148929452446
273.68,0.0049471345475081
273.7,0.0032786437230531
273.73,0.0020483162743626
273.75,0.001165508584832
273.77,0.0006902787477832
273.8,0.0004221921059897
273.82,0.0002447087117435
273.85,0.000187998331684
273.88,0.000140434880912
273.9,0.0001263432266874
273.93,0.0001278591626585
273.95,0.000129815597247
273.98,0.0001263661500394
274.0,0.0001581876285898
274.02,0.0001970304046324
274.05,0.0003006234826933
274.07,0.0006649009744835
274.1,0.0012450644646437
274.12,0.0023124220392196
274.15,0.0038743912593298
274.18,0.0058299878659437
274.2,0.0082501547875634
274.23,0.0109192606002607
274.25,0.0136433759238567
274.27,0.0159726433149655
274.3,0.0177366197560313
274.32,0.0186973858998807
274.35,0.01874761036523
274.38,0.0181043625943611
274.4,0.0168809198831465
274.43,0.0153471243883266
274.45,0.0139223264376699
274.48,0.0127500665077087
274.5,0.0119481956747678
274.52,0.011423996875104
274.55,0.0111656653991686
274.57,0.0110344959097646
274.6,0.0110503299020929
274.62,0.0111922368856066
274.65,0.0115039835832545
274.68,0.0119909387420912
274.7,0.0125396181571291
274.73,0.013101419966084
274.75,0.0134589044682563
274.77,0.0133248818110462
274.8,0.0127004889055949
274.82,0.0115111186807603
274.85,0.0098997714713832
274.88,0.0080317382580383
274.9,0.0061121411150689
274.93,0.0043700238597807
274.95,0.0029106492178988
274.98,0.0018677946048814
275.0,0.0011515843418618
275.02,0.0006517579005447
275.05,0.0004060179332954
275.07,0.0002426120363343
275.1,0.0001900193227878
275.12,0.0001461430285035
275.15,0.000132835169771
275.18,0.0001389547633808
275.2,0.0001393890685702
275.23,0.0001430010963577
275.25,0.0001438518132711
275.27,0.0001449480470941
275.3,0.0001453138527017
275.32,0.0001453890720728
275.35,0.0001454417937267
275.38,0.0001454504856117
275.4,0.0001454545263336
275.43,0.0001454566789215
275.45,0.0001454570190493
275.48,0.0001454571758223
275.5,0.0001454572028508
275.52,0.0001454572062609
275.55,0.0001454572074777
275.57,0.0001454572076111
275.6,0.0001454572076525
275.62,0.0001454572076563
280.55,0.0001454572076572
280.57,0.0001454572076574
280.6,0.0001454572076575
280.62,0.0001454572076575
280.65,0.0001454572076575
280.68,0.0001454572076575
280.7,0.0001454572076575
280.73,0.0001454572076575
280.75,0.0001454572076575
280.77,0.0001454572076575
280.8,0.0001454572076575
280.82,0.0001454572076575
280.85,0.0001454572076575
280.88,0.0001454572076575
280.9,0.0001454572076575
280.93,0.0001454572076575
280.95,0.0001454572076575
280.98,0.0001454572076575
281.0,0.0001454572076575
281.02,0.0001454572076575
281.05,0.0001454572076575
281.07,0.0001454572076575
281.1,0.0001454572076575
281.12,0.0001454572076575
281.15,0.0001454572076575
281.18,0.0001454572076575
281.2,0.0001454572076575
281.23,0.0001454572076575
281.25,0.0001454572076575
281.27,0.0001454572076575
281.3,0.0001454572076575
281.32,0.0001454572076575
281.35,0.0001454572076575
281.38,0.0001454572076575
281.4,0.0001454572076575
281.43,0.0001454572076575
281.45,0.0001454572076575
281.48,0.0001454572076575
281.5,0.0001454572076575
281.52,0.0001454572076575
281.55,0.0001454572076575
281.57,0.0001454572076575
281.6,0.0001454572076575
281.62,0.0001454572076575
281.65,0.0001454572076575
281.68,0.0001454572076575
281.7,0.0001454572076575
281.73,0.0001454572076575
281.75,0.0001454572076575
281.77,0.0001454572076575
281.8,0.0001454572076575
281.82,0.0001454572076575
281.85,0.0001454572076575
281.88,0.0001454572076575
281.9,0.0001454572076575
281.93,0.0001454572076575
281.95,0.0001454572076575
281.98,0.0001454572076575
282.0,0.0001454572076575
282.02,0.0001454572076575
282.05,0.0001454572076575
282.07,0.0001454572076575
282.1,0.0001454572076575
282.12,0.0001454572076575
282.15,0.0001454572076575
282.18,0.0001454572076575
282.2,0.0001454572076575
282.23,0.0001454572076574
282.25,0.0001454572076572
287.02,0.000145457207655
287.05,0.0001454572076371
287.07,0.0001454572075837
287.1,0.0001454572071232
287.12,0.0001454572058952
287.15,0.00014545720216
287.18,0.0001454571732241
287.2,0.0001454571089954
287.23,0.00014545669476
287.25,0.0001454548097009
287.27,0.0001454516536058
287.3,0.0001454349523705
287.32,0.0001454113290928
287.35,0.0001452951287691
287.38,0.000145168949665
287.4,0.0001450321766103
287.43,0.0001440724523129
287.45,0.0001436491088537
287.48,0.0001409055281913
287.5,0.0001425227968347
287.52,0.0001410838613722
287.55,0.0001427282330188
287.57,0.0001910006570045
287.6,0.0002681863319121
287.62,0.0004648831628955
287.65,0.0008040623175916
287.68,0.001258158522902
287.7,0.0019491758804717
287.73,0.0028267067341546
287.75,0.0039247175457438
287.77,0.0051834186592701
287.8,0.0065002645012958
287.82,0.0077022180673514
287.85,0.0086572844095608
287.88,0.009207268441023
287.9,0.0092510482319156
287.93,0.0088099582900587
287.95,0.0079584477822693
287.98,0.0067931661344842
288.0,0.0054975350107905
288.02,0.0042376150936731
288.05,0.0031065984666451
288.07,0.0021449511077618
288.1,0.0014283053337235
288.12,0.0008690240698362
288.15,0.0005050398771625
288.18,0.0003202223519091
288.2,0.0001983691763067
288.23,0.0001604261780948
288.25,0.0001358471724269
288.27,0.0001398289120219
288.3,0.000142899833682
288.32,0.0001427239683693
288.35,0.0001445531854304
288.38,0.0001447076132511
288.4,0.0001449816995016
288.43,0.0001453043997672
288.45,0.0001453753371817
288.48,0.0001454351729667
288.5,0.0001454518306546
288.52,0.0001454548652405
288.55,0.0001454563435436
288.57,0.0001454560000211
288.6,0.0001454522675673
288.62,0.000145445424255
288.65,0.0001454313887572
288.68,0.0001453462085207
288.7,0.0001452296328389
288.73,0.000144658087217
288.75,0.0001429409556892
288.77,0.0001416112829752
288.8,0.0001356978382338
288.82,0.0001344879892337
288.85,0.0001218823954165
288.88,0.0001388881832182
288.9,0.000203447933702
288.93,0.0002646801818058
288.95,0.0005187769436126
288.98,0.0008823959090272
289.0,0.0017646123829846
289.02,0.0030519497399045
289.05,0.0050972596343991
289.07,0.0084616463956843
289.1,0.0128749753628696
289.12,0.0185263297779454
289.15,0.0249152966775914
289.18,0.031489683547784
289.2,0.0375800206987226
289.23,0.0425397737715845
289.25,0.045820905858586
289.27,0.0463161700519113
289.3,0.0446039317797255
289.32,0.0407956170458126
289.35,0.0353285337111937
289.38,0.0290098930419854
289.4,0.0224422165611137
289.43,0.0164110053234811
289.45,0.0112676411013419
289.48,0.0074610151814113
289.5,0.0047177078394387
289.52,0.0027120449984993
289.55,0.0016037968465828
289.57,0.000829700611248
289.6,0.0005001269487115
289.62,0.0002430285639861
289.65,0.0001365906696245
289.68,0.0001346741244999
289.7,0.0001223216167512
289.73,0.0001342265141984
289.75,0.000136206565694
289.77,0.0001421044560208
289.8,0.0001443750013985
289.82,0.0001448497333394
289.85,0.0001452981105792
289.88,0.000145373566954
289.9,0.0001454178948417
289.93,0.0001454477208133
289.95,0.000145453206164
289.98,0.0001454563730953
290.0,0.0001454570500883
290.02,0.0001454571531107
290.05,0.0001454571986857
290.07,0.0001454572047365
290.1,0.0001454572061423
290.12,0.0001454572038283
290.15,0.0001454571960947
290.18,0.0001454571359258
290.2,0.0001454570030296
290.23,0.0001454561480736
290.25,0.0001454522664282
290.27,0.0001454457786325
290.3,0.0001454113533608
290.32,0.0001453624870682
290.35,0.0001451211260556
290.38,0.0001448560879207
290.4,0.0001445621526166
290.43,0.0001425111956965
290.45,0.0001415307440876
290.48,0.0001353769953323
290.5,0.0001382338492569
290.52,0.0001333256213454
290.55,0.0001325605831664
290.57,0.0002329239024957
290.6,0.0003914526967747
290.62,0.0008187325877134
290.65,0.0015727975268486
290.68,0.0025862219317456
290.7,0.0041761548099439
290.73,0.0062260221499608
290.75,0.0088559356735592
290.77,0.0119946195463601
290.8,0.0153900166480124
290.82,0.0186511928953018
290.85,0.0214290980550092
290.88,0.023287904210789
290.9,0.0239120183334318
290.93,0.0232905613594328
290.95,0.0215182214341111
290.98,0.0187945482426255
291.0,0.0155553697013217
291.02,0.0122696453209469
291.05,0.0091741401136078
291.07,0.006448438559391
291.1,0.0043179855637835
291.12,0.0026152327677583
291.15,0.0014558046659761
291.18,0.0008189699669189
291.2,0.0003926132173349
291.23,0.0002347438097378
291.25,0.0001347978217389
291.27,0.0001356676131026
291.3,0.0001404251276084
291.32,0.0001371547470853
291.35,0.0001426378700734
291.38,0.0001426905967462
291.4,0.0001435567177846
291.43,0.0001448089120582
291.45,0.0001450893445733
291.48,0.0001453527521986
291.5,0.0001454303173366
291.52,0.0001454452426242
291.55,0.0001454545544004
291.57,0.0001454561706459
291.6,0.0001454570174243
291.62,0.0001454571388734
291.65,0.0001454571843468
291.68,0.0001454572039356
291.7,0.0001454572065209
291.73,0.0001454572074986
291.75,0.0001454572076132
291.77,0.0001454572076519
304.98,0.0001454572076558
305.0,0.0001454572076533
305.02,0.0001454572076278
305.05,0.0001454572074589
305.07,0.0001454572070391
305.1,0.0001454572039831
305.12,0.0001454571971253
305.15,0.0001454571792728
305.18,0.0001454570559496
305.2,0.000145456824551
305.23,0.0001454554914396
305.25,0.0001454502370022
305.27,0.000145442936072
305.3,0.0001454072154284
305.32,0.0001453664255339
305.35,0.0001451703656916
305.38,0.0001450144144878
305.4,0.0001449451245663
305.43,0.0001438358813086
305.45,0.0001439456985504
305.48,0.0001417750566934
305.5,0.0001466262881566
305.52,0.0001501649735235
305.55,0.0001613574653525
305.57,0.0002298964627645
305.6,0.0003360237157587
305.62,0.0005758099929931
305.65,0.0009697499320511
305.68,0.0014841719275193
305.7,0.0022447068929226
305.73,0.0031909278704357
305.75,0.004362303536176
305.77,0.005715679291479
305.8,0.0071469142936249
305.82,0.0085027788388913
305.85,0.0096416991763401
305.88,0.0104016262645415
305.9,0.0106549810317464
305.93,0.0104035211164432
305.95,0.0096811643676727
305.98,0.0085660930282972
306.0,0.007220356139747
306.02,0.0058330947696653
306.05,0.0044963806431533
306.07,0.0032856051258012
306.1,0.0023050807948949
306.12,0.0014965211347409
306.15,0.0009196399854524
306.18,0.0005759882724212
306.2,0.0003368953040737
306.23,0.000231263271713
306.25,0.0001630453210189
306.27,0.0001519219803943
306.3,0.0001482641253956
306.32,0.0001430952486914
306.35,0.000144757667855
306.38,0.0001439490504672
306.4,0.0001441688887662
306.43,0.0001449608609431
306.45,0.0001451338798909
306.48,0.000145354510678
306.5,0.0001454273747181
306.52,0.0001454422225765
306.55,0.0001454534253885
306.57,0.0001454555438803
306.6,0.0001454568579914
306.62,0.0001454570627897
306.65,0.0001454571519124
306.68,0.0001454571971253
306.7,0.0001454572039831
306.73,0.0001454572070391
306.75,0.0001454572074589
306.77,0.0001454572076278
306.8,0.0001454572076534
306.82,0.0001454572076562
309.68,0.000145457207656
309.7,0.0001454572076525
309.73,0.0001454572076212
309.75,0.0001454572074159
309.77,0.0001454572069079
309.8,0.0001454572032146
309.82,0.0001454571949367
309.85,0.0001454571402172
309.88,0.0001454570320444
309.9,0.0001454567820854
309.93,0.0001454551683157
309.95,0.0001454525375837
309.98,0.0001454384941098
310.0,0.0001454194967008
310.02,0.000145325295458
310.05,0.0001450343849582
310.07,0.0001447915445679
310.1,0.0001436770219367
310.12,0.0001432437282541
310.15,0.0001440613532865
310.18,0.0001409125700055
310.2,0.0001468007025224
310.23,0.0001484546157285
310.25,0.0001569676663077
310.27,0.0002498561052484
310.3,0.0003916804165915
310.32,0.0007457961116615
310.35,0.0012593626468357
310.38,0.0021811832897117
310.4,0.0035315901170034
310.43,0.0052073336504615
310.45,0.0073987945611316
310.48,0.009923297037839
310.5,0.0127381365636953
310.52,0.0156494774121214
310.55,0.01833858371334
310.57,0.0204610356423428
310.6,0.0217865389973677
310.62,0.0221239097555026
310.65,0.0213616021234753
310.68,0.0196481223965952
310.7,0.0172681448482131
310.73,0.0144292646611024
310.75,0.0115230627817132
310.77,0.0090273903677911
310.8,0.0070255120034776
310.82,0.0061582252201133
310.85,0.0063554096073809
310.88,0.008520343244824
310.9,0.0129248938205266
310.93,0.0191134147918443
310.95,0.0280747466026417
310.98,0.0391118668918734
311.0,0.0523921869140523
311.02,0.0669560948603956
311.05,0.0816702950544154
311.07,0.0948695938228654
311.1,0.1051772070198859
311.12,0.1111128850518111
311.15,0.1115873603239848
311.18,0.1069026983654305
311.2,0.0977402400042136
311.23,0.0850958932639934
311.25,0.0708680601713236
311.27,0.05595527078604
311.3,0.0421937759923199
311.32,0.0299658774072714
311.35,0.0203129899920646
311.38,0.0124415367023125
311.4,0.0069476690915649
311.43,0.0037990555414018
311.45,0.0016826388246056
311.48,0.0008944123846109
311.5,0.0004974535108754
311.52,0.0002076295810874
311.55,0.0001742666764517
311.57,0.0001252930191778
311.6,0.000140366142219
311.62,0.0001322505583229
311.65,0.0001340099951235
311.68,0.0001412522362264
311.7,0.0001426670874548
311.73,0.0001445285726358
311.75,0.0001449329336216
311.77,0.000145308925491
311.8,0.0001454191547123
311.82,0.0001454401672497
311.85,0.00014545355162
311.88,0.0001454556571493
311.9,0.0001454565960376
311.93,0.0001454570870536
311.95,0.0001454571638884
311.98,0.0001454571999977
312.0,0.0001454572064334
312.02,0.0001454572072811
312.05,0.0001454572076041
312.07,0.0001454572076417
320.1,0.0001454572076491
320.12,0.0001454572076347
320.15,0.0001454572075856
320.18,0.0001454572071833
320.2,0.000145457206226
320.23,0.0001454571995622
320.25,0.0001454571658222
320.27,0.0001454571011858
320.3,0.0001454567181409
320.32,0.0001454560580262
320.35,0.0001454524067078
320.38,0.0001454470031183
320.4,0.000145437666043
320.43,0.0001453803708169
320.45,0.0001453158010231
320.48,0.0001449951054463
320.5,0.0001447421896636
320.52,0.0001434298607848
320.55,0.0001401930856453
320.57,0.0001401234035447
320.6,0.0001353428005299
320.62,0.0001463475097041
320.65,0.0001815992053289
320.68,0.0002143518034317
320.7,0.000340384138065
320.73,0.000509701626659
320.75,0.0008169612278839
320.77,0.0015604460327367
320.8,0.0026293367820801
320.82,0.0044456778910482
320.85,0.0068076595735417
320.88,0.0101493332677987
320.9,0.0143256587328965
320.93,0.0189024622364195
320.95,0.0242000924502522
320.98,0.0295773206008969
321.0,0.0354967726021694
321.02,0.0415262240233231
321.05,0.047778374992697
321.07,0.0553719722089586
321.1,0.0636237037624664
321.12,0.0736056093415057
