Wavelength (nm),Normalized
367.3,3.718772448054921e-05
367.33,3.7187705003506544e-05
367.35,3.7187692005521335e-05
367.38,3.718768548659356e-05
367.4,3.718768544672325e-05
367.43,3.718769188591037e-05
367.45,3.718764905385821e-05
367.48,3.718757618657591e-05
367.5,3.718742575507144e-05
367.52,3.7186463840550326e-05
367.55,3.718274841744269e-05
367.58,3.717780228781723e-05
367.6,3.71528034743292e-05
367.62,3.712357526274309e-05
367.65,3.708449438226503e-05
367.68,3.680519537250584e-05
367.7,3.5953051726593494e-05
367.73,3.539259573385477e-05
367.75,3.2388568145458857e-05
367.77,3.1694818824956175e-05
367.8,2.2961236929158055e-05
367.83,2.807701736416306e-05
367.85,1.3791252543244852e-05
367.88,6.406271110204029e-05
367.9,0.0002115556111119
367.93,0.0003269658022974
367.95,0.0005110693090913
367.98,0.0014900147878782
368.0,0.0034975699118222
368.02,0.0060095499113582
368.05,0.0099376902799899
368.08,0.0181751720545146
368.1,0.0294893193421183
368.12,0.0480269216736159
368.15,0.0737983607038536
368.18,0.1044619133224703
368.2,0.1423331083268708
368.23,0.1901428575505939
368.25,0.2434219516236048
368.27,0.3002726984729604
368.3,0.3573661311096249
368.33,0.4108614699899078
368.35,0.4555754608030198
368.38,0.4877430118515622
368.4,0.5023141123231624
368.43,0.4992351013090721
368.45,0.4803754556302145
368.48,0.4457839028537276
368.5,0.3977150233706598
368.52,0.3445886032380245
368.55,0.2883013824803832
368.58,0.231574834669825
368.6,0.1797522880699308
368.62,0.1323956706006496
368.65,0.0934898802930957
368.68,0.0652725510771352
368.7,0.0437643197847416
368.73,0.0264100590644518
368.75,0.0150295951158708
368.77,0.0091821598310321
368.8,0.0054840014623121
368.83,0.0027035245619845
368.85,0.0015073741784082
368.88,0.00050760348082
368.9,7.19520010876718e-05
368.93,5.5560726918806687e-05
368.95,4.844779170947141e-05
368.98,1.441814134945987e-05
369.0,2.878602250698795e-05
369.02,2.6232543107997264e-05
369.05,3.347384870418115e-05
369.08,3.4137876761950336e-05
369.1,3.627697637261872e-05
369.12,3.645214939513032e-05
369.15,3.672029955791084e-05
369.18,3.7047395589737894e-05
369.2,3.715007183288473e-05
369.23,3.7165715833702936e-05
369.25,3.717625344256064e-05
369.27,3.718467328616596e-05
369.3,3.718696185777066e-05
369.33,3.718737704788058e-05
369.35,3.718763358751838e-05
369.38,3.7187672990654126e-05
369.4,3.718769094591178e-05
369.43,3.718770087846809e-05
369.45,3.718770296291761e-05
369.48,3.718770328076785e-05
369.5,3.7187703428033326e-05
369.52,3.71877034476087e-05
370.23,3.718770345316894e-05
370.25,3.718770342998806e-05
370.27,3.718770337563734e-05
370.3,3.718770300345823e-05
370.33,3.718770223497481e-05
370.35,3.7187697350128165e-05
370.38,3.718768815726543e-05
370.4,3.718766743858989e-05
370.43,3.7187531099373134e-05
370.45,3.7186970008824274e-05
370.48,3.718614371665878e-05
370.5,3.71846652376792e-05
370.52,3.717533507689316e-05
370.55,3.71426746020164e-05
370.58,3.710700288487667e-05
370.6,3.693230179594989e-05
370.62,3.677742927683295e-05
370.65,3.665324610651826e-05
370.68,3.528384045605743e-05
370.7,3.1426132630981515e-05
370.73,3.051323313716237e-05
370.75,2.1352191860991085e-05
370.77,2.8236943576355896e-05
370.8,1.5858885252200977e-05
370.83,7.540525885834848e-05
370.85,0.0001124000318776
370.88,0.0004127084219506
370.9,0.0010797935416913
370.93,0.0018259602918972
370.95,0.0030350906867258
370.98,0.0063340469470456
371.0,0.0121392039270292
371.02,0.0195586498143876
371.05,0.0302888236075479
371.08,0.0484465369975531
371.1,0.072007713488879
371.12,0.1053139057461429
371.15,0.1469405291568747
371.18,0.1933320898022512
371.2,0.2453421899332075
371.23,0.3025169361565968
371.25,0.3593700198519786
371.27,0.4101804091980631
371.3,0.4534459016743707
371.33,0.4851889256948283
371.35,0.5019627199207111
371.38,0.5041130510140371
371.4,0.4905394375961934
371.43,0.4640261884324164
371.45,0.4306858868781559
371.48,0.396467104317767
371.5,0.3655965028137404
371.52,0.3414473628797562
371.55,0.328609855960151
371.58,0.3287085227923664
371.6,0.3416338778125844
371.62,0.3633107212007502
371.65,0.3909750834070403
371.68,0.4208663733264026
371.7,0.4466253405228487
371.73,0.4619489919647237
371.75,0.4658277236188757
371.77,0.452621081576991
371.8,0.4270101146288679
371.83,0.388966174773223
371.85,0.3425474980589578
371.88,0.2905408599221144
371.9,0.2373853157640048
371.93,0.1885897204417295
371.95,0.1451639376379983
371.98,0.1066728812426824
372.0,0.0766293068572823
372.02,0.0521313969813872
372.05,0.0352539117043327
372.08,0.0219618328407347
372.1,0.013778877473487
372.12,0.007338025672513
372.15,0.0035748804813043
372.18,0.0020893973584681
372.2,0.0011738383088416
372.23,0.0003985742337911
372.25,6.49215002856556e-05
372.27,5.797869612200952e-05
372.3,5.402853141233026e-05
372.33,2.6438980302322485e-05
372.35,3.5112376122867964e-05
372.38,2.924511174744898e-05
372.4,2.984466086592067e-05
372.43,3.4493990597352806e-05
372.45,3.626636004044347e-05
372.48,3.6568126162424386e-05
372.5,3.699196522182729e-05
372.52,3.7072756386327094e-05
372.55,3.715478571066551e-05
372.58,3.717053850829246e-05
372.6,3.7183411766500846e-05
372.62,3.718544982154375e-05
372.65,3.718662364013234e-05
372.68,3.718744442988977e-05
372.7,3.71876476403267e-05
372.73,3.7187678931539245e-05
372.75,3.718769330725043e-05
372.77,3.71877013482439e-05
372.8,3.718770305182384e-05
372.83,3.718770331275784e-05
372.85,3.7187703433953185e-05
372.88,3.7187703448224416e-05
377.18,3.718770343877214e-05
377.2,3.7187703358839014e-05
377.23,3.718770318857782e-05
377.25,3.7187702092550765e-05
377.27,3.718769996473289e-05
377.3,3.718768695598283e-05
377.33,3.718766393561826e-05
377.35,3.718753102217496e-05
377.38,3.7187318675882966e-05
377.4,3.718691069680768e-05
377.43,3.7184308088173546e-05
377.45,3.717482892677695e-05
377.48,3.716355205032177e-05
377.5,3.714783862460369e-05
377.52,3.704086977389378e-05
377.55,3.670499327858232e-05
377.58,3.6450866777808686e-05
377.6,3.513107916957055e-05
377.62,3.457250427037401e-05
377.65,3.5296572549583816e-05
377.68,2.938632527561302e-05
377.7,1.3568432976403087e-05
377.73,2.5641882555550543e-05
377.75,1.618176510388847e-05
377.77,0.0001186965120328
377.8,0.0002061245688999
377.83,0.0006777281477852
377.85,0.0012503656454305
377.88,0.0029264879746815
377.9,0.0060116941839619
377.93,0.009810998172682
377.95,0.0155352180578005
377.98,0.0267759442397579
378.0,0.0439985626339078
378.02,0.0654515015528269
378.05,0.0938076610602042
378.08,0.1341279659048525
378.1,0.1824919803860383
378.12,0.2421460769682509
378.15,0.3085641310982408
378.18,0.3761338608447871
378.2,0.4436102465750664
378.23,0.5066946600239679
378.25,0.5593214711311969
378.27,0.5922493626367675
378.3,0.6086644077227092
378.33,0.6049665652609522
378.35,0.5815933447575039
378.38,0.540734890237988
378.4,0.4848481789242738
378.43,0.4212201458498066
378.45,0.3550401470899995
378.48,0.2882569391309599
378.5,0.2266945481188338
378.52,0.1717375553241177
378.55,0.1271330067998973
378.58,0.0891244658340559
378.6,0.0613253281969536
378.62,0.0385033610160899
378.65,0.022979608045491
378.68,0.0144429788216716
378.7,0.0086991056287238
378.73,0.0041755156879141
378.75,0.0017366162636282
378.77,0.0009933979639834
378.8,0.0005751793642611
378.83,0.0002075556404239
378.85,0.0001337728732352
378.88,2.9180150889916364e-05
378.9,0.0
378.93,2.2133264642863785e-05
378.95,3.161091298358947e-05
378.98,3.164926879718475e-05
379.0,3.5247383109156266e-05
379.02,3.5745702187766846e-05
379.05,3.6729896823817175e-05
379.08,3.690149810016514e-05
379.1,3.710824515828266e-05
379.12,3.713697218327757e-05
379.15,3.715964656199267e-05
379.18,3.718005298257861e-05
379.2,3.7185830219976965e-05
379.23,3.718674304435447e-05
379.25,3.718725062366548e-05
379.27,3.718759464490111e-05
379.3,3.7187679167794664e-05
379.33,3.71876935976392e-05
379.35,3.7187701522890466e-05
379.38,3.718770268361646e-05
379.4,3.718770316320533e-05
379.43,3.71877034023081e-05
379.45,3.718770344599248e-05
404.15,3.718770344607102e-05
404.18,3.7187703402741965e-05
404.2,3.718770318453269e-05
404.23,3.7187702793677775e-05
404.25,3.7187700504114975e-05
404.27,3.7187696645959806e-05
404.3,3.718767469105073e-05
404.33,3.718764098036825e-05
404.35,3.718745635825228e-05
404.38,3.718720191012027e-05
404.4,3.71867797989246e-05
404.43,3.718397397282242e-05
404.45,3.717443591383035e-05
404.48,3.716495783992399e-05
404.5,3.715467548776619e-05
404.52,3.7069662783656944e-05
404.55,3.681291390465175e-05
404.58,3.6670848562789486e-05
404.6,3.5803904487597364e-05
404.62,3.569941256467263e-05
404.65,3.682026164225506e-05
404.68,3.385387176332561e-05
404.7,2.5308356639216825e-05
404.73,3.7058399710822434e-05
404.75,3.729144124803153e-05
404.77,0.0001131614974827
404.8,0.0001829213236524
404.83,0.0005000407027506
404.85,0.0008778938099501
404.88,0.0019536787506349
404.9,0.0039170174155947
404.93,0.006282047795471
404.95,0.0097984588300054
404.98,0.0169722251706459
405.0,0.0282023792880813
405.02,0.0421500395323522
405.05,0.0608873296842774
405.08,0.0892112580264643
405.1,0.1240791817929777
405.12,0.1700718601316602
405.15,0.2246625306743133
405.18,0.2831180848946673
405.2,0.3462690119054614
405.23,0.413504615945194
405.25,0.4783803084229956
405.27,0.534558692740715
405.3,0.5814773679547244
405.33,0.6150517868608644
405.35,0.6318671250161011
405.38,0.631693592561196
405.4,0.6129477599387974
405.43,0.5791089312322906
405.45,0.5353116764602537
405.48,0.4851941186859976
405.5,0.4335636694844385
405.52,0.385303471551711
405.55,0.3451677083032466
405.58,0.3159969459086152
405.6,0.3004041244244684
405.62,0.2973848328088243
405.65,0.30786385623907
405.68,0.3293576466885204
405.7,0.3566723474894155
405.73,0.3852697171091109
405.75,0.4127601141112318
405.77,0.4330551890991179
405.8,0.4451111508477536
405.83,0.445466870742846
405.85,0.4344646534523002
405.88,0.4116328022782444
405.9,0.3782302713798059
405.93,0.3385181263859717
405.95,0.2951775519123423
405.98,0.2491317752389544
406.0,0.2043075631882754
406.02,0.16258715868452
406.05,0.1265650666656889
406.08,0.094299394049004
406.1,0.0688672910267199
406.12,0.0470758556334196
406.15,0.0310199967641757
406.18,0.0209001387786632
406.2,0.0135769307019008
406.23,0.0077021634062907
406.25,0.0041175510877338
406.27,0.0025265137983193
406.3,0.0015310596707807
406.33,0.0007464296466821
406.35,0.0004403232689861
406.38,0.0001624381585244
406.4,4.42442211477134e-05
406.43,4.405315023063244e-05
406.45,4.251857157395897e-05
406.48,3.225284497644842e-05
406.5,3.576589385212511e-05
406.52,3.4571727191175445e-05
406.55,3.637822933520837e-05
406.58,3.641229971939111e-05
406.6,3.696737374281897e-05
406.62,3.6977462182775154e-05
406.65,3.7042395382696807e-05
406.68,3.7142696773145994e-05
406.7,3.717521876032163e-05
406.73,3.717947874445394e-05
406.75,3.718301634784743e-05
406.77,3.71863590495408e-05
406.8,3.71873273064806e-05
406.83,3.7187486795421296e-05
406.85,3.718748845044922e-05
406.88,3.718732977200462e-05
406.9,3.718704308083178e-05
406.93,3.718507179639267e-05
406.95,3.7178345970178466e-05
406.98,3.717163404875635e-05
407.0,3.716432809771627e-05
407.02,3.7103896883983375e-05
407.05,3.6921147154415295e-05
407.08,3.681851633677696e-05
407.1,3.61950587536055e-05
407.12,3.610540134562942e-05
407.15,3.6875428682887584e-05
407.18,3.465792240597405e-05
407.2,2.826824441717821e-05
407.23,3.635476585186351e-05
407.25,3.551483588117857e-05
407.27,8.911117151571501e-05
407.3,0.0001361994368388
407.33,0.0003636818510361
407.35,0.0006304547479994
407.38,0.0014138517828946
407.4,0.0028585501916859
407.43,0.004587591654172
407.45,0.0071688540319422
407.48,0.0125597301881673
407.5,0.0210924110077011
407.52,0.0316999021154853
407.55,0.0460710983920261
407.58,0.068185520526082
407.6,0.095616821288697
407.62,0.1323829044973586
407.65,0.1766525916410163
407.68,0.2245456450980792
407.7,0.2770270957274961
407.73,0.3341240336331997
407.75,0.3904065806987887
407.77,0.4408932303203979
407.8,0.4847293459763512
407.83,0.5181155189526067
407.85,0.5378627333721387
407.88,0.5426645192066217
407.9,0.5303354926723373
407.93,0.5036694830183319
407.95,0.4660376070119654
407.98,0.4181557184859165
408.0,0.3635871614306589
408.02,0.3082096229010879
408.05,0.2544917643492034
408.08,0.2024616279273192
408.1,0.1570600418084745
408.12,0.115938865210722
408.15,0.0827427989861869
408.18,0.0589891962070851
408.2,0.040665770141377
408.23,0.0255918236798747
408.25,0.0154564931771735
408.27,0.0099459505979431
408.3,0.0062671092908742
408.33,0.0034255520389398
408.35,0.0020315632754659
408.38,0.0008840835957743
408.4,0.0003125631970793
408.43,0.0001926301659074
408.45,0.0001236810651915
408.48,5.074624162441883e-05
408.5,4.694161222325452e-05
408.52,3.271707986530926e-05
408.55,3.666662747453756e-05
408.58,3.465660265054331e-05
408.6,3.659781618715226e-05
408.62,3.615848756768291e-05
408.65,3.633877239543805e-05
408.68,3.691152204092071e-05
408.7,3.710827814840352e-05
408.73,3.7125432087325705e-05
408.75,3.714833126829601e-05
408.77,3.717560546998439e-05
408.8,3.71842638956906e-05
408.83,3.71858855424459e-05
408.85,3.718724510745123e-05
408.88,3.718745375171497e-05
408.9,3.718757934801222e-05
408.93,3.718767186702504e-05
408.95,3.718769588380517e-05
408.98,3.718770014062732e-05
409.0,3.718770271632574e-05
409.02,3.7187703153614214e-05
409.05,3.718770339621683e-05
409.08,3.718770343482483e-05
409.1,3.718770345364266e-05
416.3,3.718770344932868e-05
416.33,3.718770343676386e-05
416.35,3.718770335355608e-05
416.38,3.718770320475589e-05
416.4,3.718770288381744e-05
416.43,3.7187700766655046e-05
416.45,3.718769219147016e-05
416.48,3.718767982782499e-05
416.5,3.7187657869625666e-05
416.52,3.7187515882524824e-05
416.55,3.718700718504992e-05
416.58,3.71864272099681e-05
416.6,3.7183496000149786e-05
416.62,3.718057821901543e-05
416.65,3.717743257928919e-05
416.68,3.7149148223668846e-05
416.7,3.706334582295039e-05
416.73,3.701611147480438e-05
416.75,3.672319102474125e-05
416.77,3.668354590222245e-05
416.8,3.578570185050625e-05
416.83,3.628231189754758e-05
416.85,3.436437161636207e-05
416.88,3.889549338501386e-05
416.9,5.3112454881133475e-05
416.93,5.956294270997129e-05
416.95,6.457884076335308e-05
416.98,0.0001607043053228
417.0,0.0003794999617872
417.02,0.0006202974303721
417.05,0.0009925331145791
417.08,0.0020507878585992
417.1,0.0034902009708032
417.12,0.006402043107917
417.15,0.0110027905115192
417.18,0.0166210058679002
417.2,0.0243116258593725
417.23,0.0366588538277051
417.25,0.0522051374559902
417.27,0.0736612960294343
417.3,0.0991822684405946
417.33,0.1312448604826214
417.35,0.1668179318650195
417.38,0.2072331645882414
417.4,0.249099145944441
417.43,0.2889722303895952
417.45,0.3263231655737061
417.48,0.3589717174292985
417.5,0.3826775490171361
417.52,0.3993496471659547
417.55,0.4049065804662969
417.58,0.3990069097487855
417.6,0.3823573145617001
417.62,0.3560052212238749
417.65,0.3214677188304745
417.68,0.282985144320735
417.7,0.2427377317621321
417.73,0.2012547335046633
417.75,0.1624315853240751
417.77,0.1281913816751131
417.8,0.0985781504679073
417.83,0.0723981009275187
417.85,0.0522207164294979
417.88,0.03509403248871
417.9,0.0227121845792491
417.93,0.0151773543228538
417.95,0.0099053383777549
417.98,0.00584120006164
418.0,0.0036563766882186
418.02,0.0019923667079453
418.05,0.0012274780561513
418.08,0.0006199807877355
418.1,0.0003782645059131
418.12,0.0001582103669863
418.15,6.1261073325272e-05
418.18,5.5848424688071234e-05
418.2,4.941660696073458e-05
418.23,3.566289844539554e-05
418.25,3.1942187348776866e-05
418.27,3.517188382037407e-05
418.3,3.6079646805457946e-05
418.33,3.606970006362255e-05
418.35,3.546837981492768e-05
418.38,3.6645944656209016e-05
418.4,4.127711692957324e-05
418.43,4.170565337958988e-05
418.45,3.9161393227646835e-05
418.48,7.316604452816957e-05
418.5,0.0001576281547814
418.52,0.0002426570713658
418.55,0.0003728539543788
418.58,0.0008234227080291
418.6,0.0014289600550278
418.62,0.0027793558646571
418.65,0.0050125527297686
418.68,0.0077419105607
418.7,0.0115851991846235
418.73,0.0182335031933216
418.75,0.0268044477027873
418.77,0.0393820583968503
418.8,0.0547514254709849
418.83,0.0751685097863921
418.85,0.0986299332448498
418.88,0.1268374390525152
418.9,0.1577601435679397
418.93,0.1887885254536582
418.95,0.2198713039218744
418.98,0.2499078244942696
419.0,0.275428433396048
419.02,0.2969058659233154
419.05,0.3109727269523833
419.08,0.3168503274574255
419.1,0.313989854821707
419.12,0.3026427363676714
419.15,0.282972810966708
419.18,0.2577520107550999
419.2,0.2289529367034063
419.23,0.1970782703568086
419.25,0.1651780285287025
419.27,0.1347988570889908
419.3,0.1071928727584281
419.33,0.0818542522321755
419.35,0.0611581744662013
419.38,0.0431101154122271
419.4,0.0293651289583061
419.43,0.020320894368178
419.45,0.0137326840860396
419.48,0.0085646924090458
419.5,0.0055311334829134
419.52,0.00321078775345
419.55,0.0020185548758619
419.58,0.0010884972978154
419.6,0.000662639868668
419.62,0.0002989412974985
419.65,0.0001231343470812
419.68,9.17839521406068e-05
419.7,6.953262891135341e-05
419.73,4.113277124878554e-05
419.75,3.1638756460716195e-05
419.77,3.5420725379414856e-05
419.8,3.6880845111156856e-05
419.83,3.6361807400754144e-05
419.85,3.698342678362499e-05
419.88,3.6865578139482584e-05
419.9,3.692447814753639e-05
419.93,3.709646126755427e-05
419.95,3.7158015384270645e-05
419.98,3.7168283245351965e-05
420.0,3.7181727626870054e-05
420.02,3.718419024033691e-05
420.05,3.718670418132546e-05
420.08,3.71871716333756e-05
420.1,3.718756924165955e-05
420.12,3.7187629564410954e-05
420.15,3.718766651847048e-05
420.18,3.7187694203827034e-05
420.2,3.7187701361262526e-05
420.23,3.718770246600921e-05
420.25,3.718770301848984e-05
420.27,3.718770335991097e-05
420.3,3.718770343859383e-05
420.33,3.718770345091118e-05
420.35,3.718770345648094e-05
421.3,3.718770344986499e-05
421.33,3.718770343563937e-05
421.35,3.718770334580574e-05
421.38,3.71877031847028e-05
421.4,3.71877028343178e-05
421.43,3.7187700515507806e-05
421.45,3.7187691046038184e-05
421.48,3.718767721140571e-05
421.5,3.7187652239763096e-05
421.52,3.718749059433594e-05
421.55,3.7186905419144864e-05
421.58,3.718622122471763e-05
421.6,3.718274891836944e-05
421.62,3.717914749469055e-05
421.65,3.71750028646305e-05
421.68,3.713973145657179e-05
421.7,3.703106363826623e-05
421.73,3.6964634036222125e-05
421.75,3.6571569259675096e-05
421.77,3.646948172714715e-05
421.8,3.516836194241808e-05
421.83,3.556173443355159e-05
421.85,3.23071098300701e-05
421.88,3.7292596255817216e-05
421.9,5.479568723751879e-05
421.93,5.875999029840534e-05
421.95,5.5085741326527344e-05
421.98,0.0001796737351625
422.0,0.0004800337522228
422.02,0.0007903759403007
422.05,0.0012657052653203
422.08,0.002817029803892
422.1,0.0049039028047796
422.12,0.0094456461444692
422.15,0.0168777802402511
422.18,0.0259516763304393
422.2,0.0386381927043063
422.23,0.0602985093980761
422.25,0.0881142775893979
422.27,0.1285617371503175
422.3,0.1777886017342123
422.33,0.2427694090082644
422.35,0.3171313548295338
422.38,0.4061657942749828
422.4,0.5034249364091876
422.43,0.6006639989775379
422.45,0.6978397503285503
422.48,0.7915524689685072
422.5,0.8710575965187102
422.52,0.9379234163122672
422.55,0.98171288159755
422.58,1.0
422.6,0.9911840319917008
422.62,0.9559396336753886
422.65,0.8947462912356893
422.68,0.8161979723084172
422.7,0.726371342060102
422.73,0.6266719701005486
422.75,0.5267224690663442
422.77,0.4312158749019025
422.8,0.3441599650919308
422.83,0.2639379018358889
422.85,0.1981580230456712
422.88,0.1405366795817279
422.9,0.0964087784069607
422.93,0.0671115234024321
422.95,0.0456131631207527
422.98,0.0286863920300096
423.0,0.0186308414506412
423.02,0.0109153189027662
423.05,0.006876964653305
423.08,0.0037240547783809
423.1,0.0022452148760478
423.12,0.0009907400612782
423.15,0.0003729107743572
423.18,0.0002479256292115
423.2,0.0001611992146912
423.23,5.771002720338518e-05
423.25,2.140374441532521e-05
423.27,3.268949859096169e-05
423.3,3.692052207363555e-05
423.33,3.460137155436472e-05
423.35,3.661187968139206e-05
423.38,3.606888407161016e-05
423.4,3.623436034937248e-05
