Wavelength (nm),Normalized
203.55,0.0014651175767344
203.57,0.0014650868273261
203.6,0.0014650660971818
203.62,0.0014650553863015
203.65,0.0014650546946853
203.68,0.0014650640223331
203.7,0.0014650091282959
203.72,0.0014645399434652
203.75,0.001461900115386
203.78,0.0014566844786579
203.8,0.0014288751392395
203.82,0.0013895768073198
203.85,0.0013351276738231
203.88,0.0010778426468638
203.9,0.0005739069153944
203.93,0.000790282607199
203.95,0.0022615001250928
203.97,0.0048193339929127
204.0,0.0115606257481164
204.03,0.0226434248255985
204.05,0.0397536486811785
204.07,0.0615025328814078
204.1,0.0845852742519341
204.12,0.1059016265359929
204.15,0.1204748612195363
204.18,0.1244622099183596
204.2,0.117157544011545
204.22,0.100078437510541
204.25,0.0779777588227046
204.28,0.0538476470094222
204.3,0.0330982494589657
204.32,0.0174146472593643
204.35,0.0074765568790619
204.38,0.0032341178028063
204.4,0.0016563713942981
204.43,0.0007238895160796
204.45,0.0006912444775093
204.47,0.0011443401303225
204.5,0.0013580512029933
204.53,0.0014116027786842
204.55,0.00145274511172
204.57,0.0014600488040422
204.6,0.0014632607674153
204.62,0.0014647897388566
204.65,0.0014650457980414
204.68,0.0014650743035629
204.7,0.0014650817908954
204.72,0.0014650838767794
204.75,0.0014650840434077
204.78,0.0014650840804428
204.8,0.0014650840829396
205.9,0.0014650840817742
205.93,0.0014650840751295
205.95,0.0014650840394546
205.97,0.00146508355654
206.0,0.0014650817302172
206.03,0.0014650630944999
206.05,0.001464928767425
206.07,0.0014645891969886
206.1,0.0014636558061811
206.12,0.0014575461231516
206.15,0.0014330533209645
206.18,0.0014007579331263
206.2,0.0013592931710266
206.22,0.001163550475519
206.25,0.0007938378035172
206.28,0.0010096959922089
206.3,0.0015746879578426
206.32,0.0044644250376843
206.35,0.0103507694752779
206.38,0.0193181011113099
206.4,0.0325843269280684
206.43,0.0490703356882642
206.45,0.0662992154243553
206.47,0.0819552644945772
206.5,0.0917767381112955
206.53,0.0947499655334007
206.55,0.0889771026019942
206.57,0.0767195123838088
206.6,0.0601800606916584
206.62,0.0417515620459468
206.65,0.0266789746826492
206.68,0.0209009912059724
206.7,0.0265528608998429
206.72,0.0438611181345239
206.75,0.0734157474316743
206.78,0.1125780395351176
206.8,0.1553843504910789
206.82,0.1914821319537287
206.85,0.2142930212236594
206.88,0.2198785952360089
206.9,0.2064238106773415
206.93,0.1777548909615612
206.95,0.1386523409654449
206.97,0.0963600893295055
207.0,0.0599778816612065
207.03,0.0326236697239161
207.05,0.0155419329996479
207.07,0.0048680845512693
207.1,0.0003546670733354
207.12,0.0004078106603848
207.15,0.0009092222360135
207.18,0.0009405268186337
207.2,0.001129501200614
207.22,0.0013603836765862
207.25,0.0014154024272413
207.28,0.0014539826233851
207.3,0.0014630838816062
207.32,0.0014644195934813
207.35,0.0014648831890331
207.38,0.0014650583543309
207.4,0.0014650814046223
207.43,0.001465083501426
207.45,0.0014650839657872
207.47,0.0014650840745384
207.5,0.0014650840826056
207.97,0.0014650840823931
208.0,0.0014650840790443
208.03,0.001465084028455
208.05,0.0014650834787542
208.07,0.0014650814947486
208.1,0.0014650738260928
208.12,0.0014650031236568
208.15,0.0014645649142099
208.18,0.0014636048485969
208.2,0.0014613074012877
208.22,0.0014477924712246
208.25,0.0014012044510701
208.28,0.0013533207659508
208.3,0.0011834667592684
208.32,0.0011520407479435
208.35,0.0014089441683473
208.38,0.0017417591167955
208.4,0.0030064746987886
208.43,0.0070559566475923
208.45,0.014243135280033
208.47,0.024461584253191
208.5,0.0374668146109549
208.53,0.0520919911648429
208.55,0.0657160830245827
208.57,0.0749200116441799
208.6,0.0779334615826664
208.62,0.074236825961081
208.65,0.064754701554769
208.68,0.0518792496979705
208.7,0.0375262853112889
208.72,0.0241271257968009
208.75,0.013820297659781
208.78,0.007307067825773
208.8,0.0037224245110598
208.82,0.0015807569004722
208.85,0.0008694783014623
208.88,0.001118288344885
208.9,0.0013159574974297
208.93,0.001352680356881
208.95,0.0014005077677756
208.97,0.0014464072890335
209.0,0.0014582408315181
209.03,0.0014493120422806
209.05,0.0014040713271203
209.07,0.0013410203270583
209.1,0.0012553064370454
209.12,0.000844773872476
209.15,1.2169964299196637e-05
209.18,0.0002936589128187
209.2,0.0025283605860741
209.22,0.0062734871199927
209.25,0.0153417485210946
209.28,0.0352092085407592
209.3,0.0655236120413369
209.32,0.1054863430770497
209.35,0.1497991455922401
209.38,0.1932171463917907
209.4,0.2266189155351151
209.43,0.2413042955882185
209.45,0.2344365949403381
209.47,0.2073799956079268
209.5,0.1669459627098894
209.53,0.1229414296856323
209.55,0.0805285810663669
209.57,0.0463004576035653
209.6,0.0224877115770599
209.62,0.0101390291021465
209.65,0.004353287112789
209.68,0.0008722347684227
209.7,0.0
209.72,0.0006794745645125
209.75,0.0009044281160049
209.78,0.0012825178726047
209.8,0.0014172413449642
209.82,0.0014429937600067
209.85,0.0014561504689477
209.88,0.0014634226421146
209.9,0.0014648331861111
209.93,0.0014650114809501
209.95,0.0014650647512646
209.97,0.0014650819808328
210.0,0.0014650838799014
210.03,0.0014650838973472
210.05,0.0014650826662916
210.07,0.0014650786488722
210.1,0.0014650648304095
210.12,0.0014649522215919
210.15,0.001464349669804
210.18,0.0014632100678989
210.2,0.0014608686859277
210.22,0.0014482889922297
210.25,0.0014110415856999
210.28,0.0013844394384698
210.3,0.0012998205516266
210.32,0.001357700030594
210.35,0.0016671958904549
210.38,0.002170771631539
210.4,0.0033563613327468
210.43,0.0059150665201493
210.45,0.0098194399130942
210.47,0.0148737432042961
210.5,0.0204737730768514
210.53,0.0260066633730749
210.55,0.0302452318128763
210.57,0.0321108491054109
210.6,0.0312411452991155
210.62,0.0278100597077452
210.65,0.0227128409637886
210.68,0.0170897063948464
210.7,0.0116681977289042
210.72,0.0072428273465667
210.75,0.0041685570731445
210.78,0.0025597434418271
210.8,0.001801841384659
210.82,0.0013538633029695
210.85,0.0012532252285849
210.88,0.0013650083163174
210.9,0.0014281522987893
210.93,0.0014411166415641
210.95,0.0014525307210655
210.97,0.0014619213725095
211.0,0.0014644195700344
211.03,0.001464849735644
211.05,0.001465048008188
211.07,0.0014650734695298
211.1,0.001465081211215
211.12,0.0014650837646472
211.15,0.0014650840542386
211.18,0.001465084077476
211.2,0.0014650840821295
211.22,0.0014650840831035
224.93,0.0014650840831479
224.95,0.0014650840830952
224.97,0.0014650840822606
225.0,0.0014650840790843
225.03,0.0014650840456375
225.05,0.0014650837894233
225.07,0.0014650830914769
225.1,0.0014650809861159
225.12,0.001465065608078
225.15,0.0014649926903403
225.18,0.0014648705589516
225.2,0.0014646456671522
225.22,0.0014634544161497
225.25,0.0014600840169098
225.28,0.0014580372563501
225.3,0.001450987363204
225.32,0.0014571355516889
225.35,0.0014858570171375
225.38,0.0015287052507033
225.4,0.0016285892925899
225.43,0.0018631884203285
225.45,0.0022391032092908
225.47,0.0027413398235664
225.5,0.0033496785145426
225.53,0.0040100846468323
225.55,0.0046115348473851
225.57,0.0050153658359083
225.6,0.0051462259842104
225.62,0.0049856775296202
225.65,0.0045738165128602
225.68,0.0040032822828946
225.7,0.0033530041548984
225.72,0.0027279024633367
225.75,0.002221599267614
225.78,0.001872923789172
225.8,0.0016573242387514
225.82,0.0015178412353361
225.85,0.0014571314008628
225.88,0.0014550288005012
225.9,0.0014590034068226
225.93,0.0014579398126252
225.95,0.0014599935153137
225.97,0.0014633816613148
226.0,0.0014646014510691
226.03,0.0014648656739627
226.05,0.0014650379285159
226.07,0.0014650661032839
226.1,0.0014650777184781
226.12,0.0014650830633184
226.15,0.001465083947438
226.18,0.0014650840470807
226.2,0.0014650840742547
226.22,0.0014650840822846
226.25,0.001465084082985
226.28,0.0014650840831498
241.0,0.0014650840831285
241.03,0.0014650840826428
241.05,0.0014650840775232
241.07,0.0014650840590024
241.1,0.0014650839853761
241.12,0.0014650832587119
241.15,0.0014650781993444
241.18,0.0014650654130938
241.2,0.0014650290525061
241.22,0.0014647719961308
241.25,0.0014635919005889
241.28,0.0014616642758262
241.3,0.0014521444558569
241.32,0.0014403462227025
241.35,0.0014257239156562
241.38,0.001343360986672
241.4,0.0011559191905333
241.43,0.0011748584398669
241.45,0.0015575737819394
241.47,0.0019912645299765
241.5,0.0040367626695969
241.53,0.0074240166648602
241.55,0.0139025641229685
241.57,0.0258694392735981
241.6,0.0429335286447344
241.62,0.064007986732099
241.65,0.0878829415936231
241.68,0.1107207110121531
241.7,0.1288683938889762
241.72,0.1399632584548068
241.75,0.1418257437106407
241.78,0.1320438557085599
241.8,0.1145389550604589
241.82,0.0926369064852324
241.85,0.0690271596811121
241.88,0.0471795119235879
241.9,0.0296241216134934
241.93,0.0163031607865551
241.95,0.0078526416954584
241.97,0.0040904173171
242.0,0.0024040955480923
242.03,0.0013906346896294
242.05,0.0013623401320736
242.07,0.0012304395732897
242.1,0.0012687485512038
242.12,0.0013948429095129
242.15,0.0014442879353594
242.18,0.0014534207284824
242.2,0.001459459461822
242.22,0.0014637242480693
242.25,0.0014645304612468
242.28,0.0014649772052857
242.3,0.0014650666695196
242.32,0.0014650785536883
242.35,0.0014650824438309
242.38,0.0014650838713302
242.4,0.0014650840599496
242.43,0.001465084077769
242.45,0.0014650840819818
242.47,0.0014650840830694
249.03,0.0014650840831605
249.05,0.0014650840831199
249.07,0.0014650840829383
249.1,0.001465084082158
249.12,0.0014650840737562
249.15,0.0014650840083996
249.18,0.0014650838250174
249.2,0.0014650832458569
249.22,0.0014650787165125
249.25,0.0014650548228403
249.28,0.0014650087767675
249.3,0.0014647497410106
249.32,0.0014643432731437
249.35,0.0014636375268563
249.38,0.0014597344746992
249.4,0.0014484955982952
249.43,0.0014413634043185
249.45,0.0014432769081326
249.47,0.0014180044642246
249.5,0.0014720315564877
249.53,0.0015418261040589
249.55,0.0017723296604649
249.57,0.0026118315896847
249.6,0.0041785789573037
249.62,0.0064040224303116
249.65,0.0096152524347055
249.68,0.0138886092800719
249.7,0.0187701314778149
249.72,0.0237870861270041
249.75,0.0282572172039613
249.78,0.0310471291053888
249.8,0.032058641256213
249.82,0.0310077208099868
249.85,0.0279802011329765
249.88,0.0235060441856213
249.9,0.0185054191905185
249.93,0.0136605821713465
249.95,0.0094442660290356
249.97,0.0063104322521817
250.0,0.0041814553648045
250.03,0.0027344217316868
250.05,0.0020347897691072
250.07,0.0015653382384332
250.1,0.0013904842422193
250.12,0.0014208794260307
250.15,0.0014459076669732
250.18,0.0014434367746174
250.2,0.001449698394476
250.22,0.0014597535111857
250.25,0.0014621596180722
250.28,0.0014643038485638
250.3,0.0014649074393592
250.32,0.0014650087767602
250.35,0.001465054822804
250.38,0.0014650787164565
250.4,0.0014650832457891
250.43,0.0014650838249459
250.45,0.0014650840083324
250.47,0.0014650840737012
250.5,0.0014650840821233
250.53,0.0014650840829319
250.55,0.0014650840831497
252.55,0.0014650840831525
252.57,0.0014650840830992
252.6,0.0014650840828555
252.62,0.0014650840801868
252.65,0.0014650840590465
252.68,0.0014650839985812
252.7,0.0014650838038756
252.72,0.0014650822471587
252.75,0.0014650737867954
252.78,0.0014650568891917
252.8,0.0014649589567798
252.82,0.0014647975071087
252.85,0.0014645005233844
252.88,0.0014628293843731
252.9,0.0014577508606482
252.93,0.0014538414171942
252.95,0.001452806918836
252.97,0.0014351100778162
253.0,0.0014509374262786
253.03,0.0014598592307667
253.05,0.0015276309465543
253.07,0.0019207676201897
253.1,0.0027266632009123
253.12,0.0038977609085965
253.15,0.0057079070989982
253.18,0.0083813844956843
253.2,0.011705007573754
253.22,0.0154017734706961
253.25,0.0190994476763752
253.28,0.0220093992721028
253.3,0.0239083001088945
253.32,0.0243466839217127
253.35,0.0231954080257079
253.38,0.0206764127754397
253.4,0.0173354180213679
253.43,0.0137028055000812
253.45,0.0101765736638205
253.47,0.0072133117636889
253.5,0.004981656001734
253.53,0.0033589340720099
253.55,0.0024233856083345
253.57,0.0017857176499532
253.6,0.0014919687443655
253.62,0.0014600455625238
253.65,0.0014588921629585
253.68,0.0014413334186913
253.7,0.0014437788778343
253.72,0.0014566251956008
253.75,0.0014598297046154
253.78,0.0014635228359551
253.8,0.0014646894816712
253.82,0.0014648956928571
253.85,0.0014650034179989
253.88,0.0014650674577192
253.9,0.0014650811634348
253.93,0.0014650830866079
253.95,0.0014650837653387
253.97,0.0014650840373447
254.0,0.0014650840773729
254.03,0.0014650840817086
254.05,0.0014650840830227
254.07,0.0014650840831388
254.1,0.0014650840831634
258.15,0.0014650840831622
258.18,0.0014650840830722
258.2,0.00146508408276
258.23,0.0014650840797242
258.25,0.0014650840577576
258.27,0.0014650839995247
258.3,0.0014650835625756
258.32,0.0014650825659741
258.35,0.0014650761193444
258.38,0.001465063879991
258.4,0.0014650375765187
258.43,0.0014648807306566
258.45,0.0014646629422508
258.48,0.0014636399761512
258.5,0.0014626637507457
258.52,0.0014584155402037
258.55,0.0014489648946498
258.57,0.0014501494279192
258.6,0.0014460344289121
258.62,0.0014932785396774
258.65,0.0016163568473249
258.68,0.0017904854421264
258.7,0.0021778318683078
258.73,0.0027517979311387
258.75,0.0036355762889085
258.77,0.0049243692230047
258.8,0.0065036432718288
258.82,0.0082571819609237
258.85,0.0099119880331209
258.88,0.0113229968027881
258.9,0.012326070005506
258.93,0.0124580769388231
258.95,0.0128351842901131
258.98,0.0129252081803533
259.0,0.0159560462601995
259.02,0.0216179399190162
259.05,0.0331186484085691
259.07,0.0551045689821916
259.1,0.0861887033422085
259.12,0.1267053706227532
259.15,0.172373577852239
259.18,0.2187813148565967
259.2,0.2582655680290867
259.23,0.285997681273591
259.25,0.297327837608663
259.27,0.2859879106218384
259.3,0.2582118656320465
259.32,0.2185517769156096
259.35,0.1718538334604012
259.38,0.1256148645618895
259.4,0.084212988898222
259.43,0.0519686493521265
259.45,0.0285079028159769
259.48,0.0153211574515276
259.5,0.0079615842815615
259.52,0.0033538360716138
259.55,0.0021152085803357
259.57,0.0012552089021295
259.6,0.0013622328188341
259.62,0.0012534331907556
259.65,0.0012905341496774
259.68,0.0014008949614322
259.7,0.0014262835565142
259.73,0.0014531744341123
259.75,0.0014591164101382
259.77,0.0014636000979907
259.8,0.0014647586130553
259.82,0.0014649603208284
259.85,0.0014650623969154
259.88,0.0014650766938281
259.9,0.0014650817366653
259.93,0.0014650837432345
259.95,0.001465083987386
259.98,0.0014650840714201
260.0,0.0014650840818904
260.02,0.0014650840827709
264.32,0.0014650840826382
264.35,0.0014650840782724
264.38,0.0014650840635405
264.4,0.0014650840085629
264.43,0.0014650834946664
264.45,0.0014650820823385
264.48,0.0014650711916985
264.5,0.0014650456562251
264.52,0.0014648755875927
264.55,0.0014640774498367
264.57,0.0014627058557378
264.6,0.0014554788281763
264.62,0.0014453066939004
264.65,0.0014294964107048
264.68,0.0013391404322562
264.7,0.001262595776925
264.73,0.00091118696962
264.75,0.0001565881467129
264.77,0.0004067684622356
264.8,0.0003404202942207
264.82,0.0047432940042112
264.85,0.0115754556071588
264.88,0.0317292335030271
264.9,0.0684133456254565
264.93,0.119066506810262
264.95,0.1986143386195908
264.98,0.301885050524055
265.0,0.432506360672165
265.02,0.5808724409689016
265.05,0.7325423404991713
265.07,0.863727272503008
265.1,0.9588926968210126
265.12,1.0
265.15,0.978375376415628
265.18,0.8999539541935936
265.2,0.7799131742655393
265.23,0.632580792736625
265.25,0.4833511858567567
265.27,0.3453757232600852
265.3,0.232272750215616
265.32,0.1430047338794038
265.35,0.0834886054429465
265.38,0.0398909675921651
265.4,0.0149789646195855
265.43,0.0056726448168232
265.45,0.0001026316530178
265.48,0.0003811013834765
265.5,0.0008525572765072
265.52,0.0008091969189342
265.55,0.0012134844697127
265.57,0.0012960415122823
265.6,0.0014153497615586
265.62,0.0014353802625334
265.65,0.0014498901478626
265.68,0.0014611683555242
265.7,0.0014633604215516
265.73,0.0014647018259623
265.75,0.0014649352070705
265.77,0.0014650561399175
265.8,0.0014650794188917
265.82,0.0014650826330447
265.85,0.0014650838850419
265.88,0.0014650840277815
265.9,0.0014650840685114
265.93,0.0014650840815088
265.95,0.0014650840827542
268.32,0.0014650840830272
268.35,0.0014650840821738
268.38,0.0014650840792722
268.4,0.0014650840686889
268.43,0.0014650839718702
268.45,0.001465083711966
268.48,0.001465081746478
268.5,0.0014650772331654
268.52,0.0014650476049719
268.55,0.0014649108794393
268.57,0.0014646802423002
268.6,0.0014634745257327
268.62,0.0014618069500236
268.65,0.0014592660698695
268.68,0.0014445885796014
268.7,0.0014324442874689
268.73,0.0013761120982965
268.75,0.001255129696522
268.77,0.0012981613339061
268.8,0.0012908344227584
268.82,0.0020063108053365
268.85,0.0031118165029825
268.88,0.0063765417123179
268.9,0.0123260899086856
268.93,0.0205291310565495
268.95,0.0334532805654348
268.98,0.050272628861457
269.0,0.0716486707808242
269.02,0.0960070684441655
269.05,0.1210490136665964
269.07,0.1428816254767013
269.1,0.158916766788023
269.12,0.166095608412824
269.15,0.1629239643849436
269.18,0.150308858781612
269.2,0.1306893176872627
269.23,0.1064212261774345
269.25,0.0817162417838703
269.27,0.0587589646287467
269.3,0.0399013878113211
269.32,0.0250173548474205
269.35,0.0150818707522854
269.38,0.0078148104556244
269.4,0.0036708265568006
269.43,0.0021325535824585
269.45,0.0012175264584654
269.48,0.0012738785929324
269.5,0.0013584137906006
269.52,0.001354582813077
269.55,0.0014229643415669
269.57,0.0014371925817638
269.6,0.0014569334299098
269.62,0.0014602930816508
269.65,0.0014626653212309
269.68,0.0014644691677435
269.7,0.001464816717534
269.73,0.0014650256927187
269.75,0.0014650616498186
269.77,0.0014650799403752
269.8,0.0014650834035398
269.82,0.0014650838744486
269.85,0.0014650840551228
269.88,0.0014650840754325
269.9,0.0014650840811482
269.93,0.0014650840829417
269.95,0.0014650840830953
270.15,0.0014650840830601
270.18,0.0014650840821391
270.2,0.0014650840790957
270.23,0.0014650840507401
270.25,0.0014650838536378
270.27,0.0014650833462591
270.3,0.0014650796105935
270.32,0.0014650712245952
270.35,0.0014650171198455
270.38,0.00146491449797
270.4,0.0014646917166188
270.43,0.0014633410943263
270.45,0.0014614033504381
270.48,0.0014520156957942
270.5,0.0014421814108464
270.52,0.0013979878000379
270.55,0.00128984004587
270.57,0.0012699788062815
270.6,0.0011235281855431
270.62,0.001478522994041
270.65,0.00261790489292
270.68,0.0040498486663334
270.7,0.0082071864405958
270.73,0.0145093740688215
270.75,0.025367156845822
270.77,0.0445033901180988
270.8,0.0706588350018511
270.82,0.1047842149952106
270.85,0.1439686466717733
270.88,0.1842559388555268
270.9,0.2201445921830727
270.93,0.2477495964857959
270.95,0.2616370942605052
270.98,0.2598919472946998
271.0,0.2425141555883797
271.02,0.2149589092343963
271.05,0.1785326167472658
271.07,0.1394518372107582
271.1,0.1018102240147648
271.12,0.0686368040497976
271.15,0.0424255759820579
271.18,0.0246830176194873
271.2,0.0123271225218254
271.23,0.0061865306173074
271.25,0.0024508963439417
271.27,0.0016979694422127
271.3,0.0014971790837348
271.32,0.0012682027337554
271.35,0.001388482466914
271.38,0.0013712085800457
271.4,0.0013957052137947
271.43,0.0014402245396616
271.45,0.0014506590810082
271.48,0.0014609218269687
271.5,0.0014640094970911
271.52,0.0014646114533347
271.55,0.0014649813827692
271.57,0.0014650450317889
271.6,0.0014650771970563
271.62,0.0014650817073947
271.65,0.0014650833171843
271.68,0.001465083969735
271.7,0.0014650840506983
271.73,0.0014650840790601
271.75,0.001465084082114
271.77,0.0014650840830424
274.62,0.0014650840830964
274.65,0.0014650840828985
274.68,0.0014650840807307
274.7,0.0014650840739899
274.73,0.0014650840147057
274.75,0.0014650836275129
274.77,0.0014650826845091
274.8,0.001465076074321
274.82,0.0014650620073095
274.85,0.0014649749453833
274.88,0.0014648185531147
274.9,0.0014644963490675
274.93,0.0014625748887338
274.95,0.0014599906224417
274.98,0.0014476568801785
275.0,0.0014359104464251
275.02,0.0013825243009666
275.05,0.0012567642217971
275.07,0.0012534102767678
