Wavelength (nm),Normalized
211.83,0.0028207132234009
211.85,0.0028207132234007
211.88,0.0028207132234006
211.9,0.0028207132234005
211.93,0.0028207132234005
211.96,0.0028207132234005
211.98,0.0028207132233997
212.01,0.0028207132233836
212.03,0.0028207132231383
212.06,0.0028207132219732
212.09,0.0028207132062339
212.11,0.0028207131453841
212.14,0.0028207125020278
212.17,0.002820707633153
212.19,0.0028206946779459
212.22,0.002820602211492
212.24,0.0028204086895163
212.27,0.0028193146759275
212.3,0.0028153171316408
212.32,0.0028106585898435
212.35,0.0027928752700977
212.37,0.0027561342911568
212.4,0.0027619871426429
212.43,0.0027764372441441
212.45,0.0029927463665988
212.48,0.0034035064413869
212.51,0.0042298787151509
212.53,0.0056566605492861
212.56,0.007603207715641
212.58,0.0098267733568035
212.61,0.0120583263958389
212.64,0.0138305550587521
212.66,0.0146775174424073
212.69,0.0144690319323591
212.71,0.013287745609686
212.74,0.0112486260900072
212.77,0.0089266948379044
212.79,0.0067642061577293
212.82,0.0049976307638597
212.85,0.0037717501381951
212.87,0.0031366465169076
212.9,0.0028588289639546
212.92,0.0027282573505097
212.95,0.0027596776440247
212.98,0.0027908924634966
213.0,0.0027999212713844
213.03,0.0028136978532473
213.05,0.0028171424104191
213.08,0.0028198373943923
213.11,0.0028205327754916
213.13,0.0028206501044428
213.16,0.002820703241135
213.19,0.0028207103308898
213.21,0.0028207128692393
213.24,0.0028207131869616
213.26,0.0028207132156241
213.29,0.002820713222777
213.32,0.0028207132233587
213.34,0.002820713223394
213.37,0.0028207132234003
213.39,0.0028207132234006
213.42,0.0028207132234007
213.45,0.0028207132234007
213.47,0.0028207132234007
234.36,0.0028207132234007
234.39,0.0028207132234007
234.41,0.0028207132234007
234.44,0.0028207132234007
234.46,0.0028207132234006
234.49,0.0028207132234005
234.52,0.0028207132233975
234.54,0.0028207132233833
234.57,0.002820713223186
234.6,0.0028207132211085
234.62,0.0028207132136221
234.65,0.002820713138007
234.67,0.0028207129087063
234.7,0.0028207109999127
234.73,0.0028206996590717
234.75,0.0028206750986367
234.78,0.0028205258160856
234.8,0.0028199080073462
234.83,0.0028190206821883
234.86,0.0028150103726275
234.88,0.0028110477984701
234.91,0.0027950092996761
234.94,0.0027624030274642
234.96,0.0027737713792975
234.99,0.0027887080285639
235.01,0.0029970832329506
235.04,0.0033646850091759
235.07,0.0041196870034083
235.09,0.0055861744360289
235.12,0.0076947473926104
235.14,0.0104313362409059
235.17,0.0135445230557709
235.2,0.0166131680960895
235.22,0.0189685817830387
235.25,0.0202789223442244
235.27,0.0202755232451751
235.3,0.0187263486987204
235.33,0.0161801073606359
235.35,0.0131493276048766
235.38,0.0100238778492188
235.41,0.0073352346264692
235.43,0.005326260605854
235.46,0.0040180364856906
235.48,0.0032065491993001
235.51,0.002918655204772
235.54,0.002818483017685
235.56,0.0027597509996564
235.59,0.0027846412800892
235.61,0.0027909464488285
235.64,0.0028096901592468
235.67,0.0028171901623243
235.69,0.0028189160260039
235.72,0.0028202522896334
235.75,0.0028205176733685
235.77,0.0028206733463689
235.8,0.0028207061345774
235.82,0.0028207109405966
235.85,0.0028207128947269
235.88,0.0028207131825217
235.9,0.0028207132132975
235.93,0.002820713222385
235.95,0.0028207132231836
235.98,0.0028207132233828
236.01,0.0028207132233994
236.03,0.0028207132234005
236.06,0.0028207132234007
236.09,0.0028207132234007
236.11,0.0028207132234007
236.14,0.0028207132234007
241.89,0.0028207132234007
241.91,0.0028207132234007
241.94,0.0028207132234006
241.97,0.0028207132233999
241.99,0.0028207132233957
242.02,0.0028207132233279
242.05,0.0028207132224692
242.07,0.0028207132188601
242.1,0.0028207131752066
242.12,0.0028207130182014
242.15,0.0028207114387514
242.18,0.0028206997247672
242.2,0.0028206682776001
242.23,0.0028204330683308
242.25,0.0028191816991962
242.28,0.0028167463972724
242.31,0.0028030582070315
242.33,0.0027816507389893
242.36,0.0026781942888483
242.39,0.0023658788156751
242.41,0.0021172193747359
242.44,0.0011656141866826
242.46,0.0012064827083065
242.49,0.0004575894682091
242.52,0.0011678319612967
242.54,0.0146290986583947
242.57,0.0388454937785597
242.59,0.0863475538697447
242.62,0.1739739038662732
242.65,0.297012241350123
242.67,0.4535367958448199
242.7,0.6290022067044323
242.73,0.8006717403735021
242.75,0.9283386518831857
242.78,1.0
242.8,0.995939022177184
242.83,0.9161557184147378
242.86,0.7803668512594225
242.88,0.6153573212197707
242.91,0.4423284970538479
242.93,0.2900609528732156
242.96,0.1724629437272472
242.99,0.0919557666675179
243.01,0.0384697648369996
243.04,0.0141716895121477
243.07,0.0006839173680025
243.09,0.0
243.12,0.0008298721927094
243.14,0.0009246364512246
243.17,0.002066528246944
243.2,0.0025601281230762
243.22,0.0026765112838685
243.25,0.0027802682706131
243.27,0.0028021766329945
243.3,0.0028165660753103
243.33,0.0028199029870447
243.35,0.0028204330683308
243.38,0.0028206682776001
243.4,0.0028206997247672
243.43,0.0028207114387514
243.46,0.0028207130182014
243.48,0.0028207131752066
243.51,0.00282071321886
243.54,0.0028207132224692
243.56,0.0028207132233278
243.59,0.0028207132233957
243.61,0.0028207132233999
243.64,0.0028207132234006
243.67,0.0028207132234007
243.69,0.0028207132234007
243.72,0.0028207132234007
263.17,0.0028207132234007
263.19,0.0028207132234007
263.22,0.0028207132234007
263.25,0.0028207132234007
263.27,0.0028207132234007
263.3,0.0028207132234006
263.32,0.0028207132233996
263.35,0.0028207132233957
263.38,0.0028207132233525
263.4,0.0028207132232056
263.43,0.0028207132217935
263.46,0.0028207132116608
263.48,0.0028207131849092
263.51,0.0028207129840979
263.53,0.0028207125252103
263.56,0.0028207095359514
263.59,0.002820695911429
263.61,0.0028206733288415
263.64,0.0028205572878575
263.66,0.0028201615533591
263.69,0.0028197368250473
263.72,0.0028179293633374
263.74,0.0028168226870825
263.77,0.0028115650311124
263.8,0.002801946065817
263.82,0.0028133585192779
263.85,0.0028294234554455
263.87,0.0029222499464586
263.9,0.0030716216764511
263.93,0.003357578026446
263.95,0.0039267421645157
263.98,0.0047432156673694
264.0,0.0058643608723028
264.03,0.0072435889034282
264.06,0.0087562408336928
264.08,0.0101740753566252
264.11,0.011327632110492
264.14,0.0120270251061199
264.16,0.0120196062451421
264.19,0.0114358602000505
264.21,0.0103664090850283
264.24,0.0089482642306563
264.27,0.0074525253638496
264.29,0.006056962843444
264.32,0.0048970885172956
264.34,0.0040110501006674
264.37,0.0034606234354954
264.4,0.0031285292860581
264.42,0.002915244964824
264.45,0.0028423202666295
264.48,0.0027994082036508
264.5,0.002806086496363
264.53,0.0028124726116224
264.55,0.0028135609638461
264.58,0.0028180031651874
264.61,0.0028197979651879
264.63,0.0028202012050196
264.66,0.0028205666249889
264.68,0.0028206435248273
264.71,0.002820696770871
264.74,0.0028207097661809
264.76,0.0028207119404064
264.79,0.0028207129940086
264.81,0.0028207131478367
264.84,0.0028207132119465
264.87,0.0028207132218608
264.89,0.0028207132229911
264.92,0.002820713223354
264.95,0.0028207132233896
264.97,0.0028207132233996
265.0,0.0028207132234006
265.02,0.0028207132234007
265.05,0.0028207132234007
265.08,0.0028207132234007
265.1,0.0028207132234007
265.13,0.0028207132234007
266.59,0.0028207132234007
266.62,0.0028207132234007
266.64,0.0028207132234007
266.67,0.0028207132234006
266.7,0.0028207132234002
266.72,0.0028207132233983
266.75,0.0028207132233734
266.78,0.0028207132231186
266.8,0.0028207132222045
266.83,0.0028207132127654
266.85,0.0028207131829935
266.88,0.0028207129176743
266.91,0.0028207111678226
266.93,0.0028207068842032
266.96,0.0028206768683287
266.98,0.0028205259788358
267.01,0.0028202454202577
267.04,0.0028186787716427
267.06,0.0028162398800123
267.09,0.002804056662832
267.12,0.002765194552209
267.14,0.0027293154943593
267.17,0.0025790732128662
267.19,0.002522632911348
267.22,0.0021864449949528
267.25,0.0016646282574827
267.27,0.0030089295712418
267.3,0.0051599803655478
267.32,0.0106565518158412
267.35,0.0267960018593516
267.38,0.0521920692877682
267.4,0.0951602995416274
267.43,0.1529520279035121
267.46,0.2273597074332323
267.48,0.3128081213233298
267.51,0.4013493662254265
267.53,0.4782791724008032
267.56,0.5339605364178713
267.59,0.5589550184770951
267.61,0.5470633116689916
267.64,0.5001675761747002
267.66,0.4294630671668724
267.69,0.3404801333455156
267.72,0.2514260851352044
267.74,0.171274980429694
267.77,0.1073543506338987
267.8,0.0597699353671456
267.82,0.0317306965150588
267.85,0.0155906109709473
267.87,0.0056991031256008
267.9,0.0033643952274964
267.93,0.0026670577461011
267.95,0.002045297186789
267.98,0.0024015252031611
268.0,0.00246549851521
268.03,0.0026879282024325
268.06,0.0027762700528735
268.08,0.0027959551423821
268.11,0.0028136449342451
268.13,0.0028173511301978
268.16,0.0028199181970593
268.19,0.002820545319158
268.21,0.0028206505413189
268.24,0.0028207019126818
268.27,0.0028207094614107
268.29,0.0028207126444023
268.32,0.0028207131437499
268.34,0.0028207132016918
268.37,0.0028207132208395
268.4,0.0028207132231324
268.42,0.0028207132233409
268.45,0.0028207132233953
268.47,0.0028207132233996
268.5,0.0028207132234006
268.53,0.0028207132234007
268.55,0.0028207132234007
273.81,0.0028207132234007
273.83,0.0028207132234007
273.86,0.0028207132234007
273.89,0.0028207132234007
273.91,0.0028207132234007
273.94,0.0028207132234005
273.96,0.0028207132233984
273.99,0.0028207132233909
274.02,0.0028207132233097
274.04,0.0028207132230423
274.07,0.002820713220535
274.1,0.002820713202925
274.12,0.0028207131570862
274.15,0.0028207128151987
274.17,0.0028207120346555
274.2,0.0028207069165107
274.23,0.0028206832413441
274.25,0.002820643036886
274.28,0.0028204309473583
274.3,0.002819677792995
274.33,0.002818802808035
274.36,0.0028149237474016
274.38,0.0028118975433074
274.41,0.0027978566165926
274.44,0.0027677022880322
274.46,0.0027793305806267
274.49,0.0027770166491372
274.51,0.0029571586966044
274.54,0.0032280355735429
274.57,0.0038226220582953
274.59,0.0053689110557439
274.62,0.0077321948934691
274.64,0.0115861755364254
274.67,0.0166623071399778
274.7,0.0230764041366614
274.72,0.0303983359986624
274.75,0.0378710200855181
274.77,0.0445665615136985
274.8,0.0488896142372518
274.83,0.0507256562571102
274.85,0.0495652057812486
274.88,0.0455592148103857
274.91,0.0396163968357275
274.93,0.0321526105331165
274.96,0.0246832469926644
274.98,0.0179453860539809
275.01,0.0125802369620198
275.04,0.0086314476398031
275.06,0.0057790398494687
275.09,0.0042190615988374
275.11,0.0032373635547457
275.14,0.0029522541816812
275.17,0.0028441877845005
275.19,0.0027619689268662
275.22,0.0027843044216539
275.25,0.002785365760036
275.27,0.0028064447870701
275.3,0.0028154175893129
275.32,0.0028175226100932
275.35,0.0028197603081064
275.38,0.0028204573053067
275.4,0.0028205960947509
275.43,0.002820685998042
275.45,0.0028207021886155
275.48,0.0028207110434516
275.51,0.0028207128378238
275.53,0.0028207130971977
275.56,0.002820713204173
275.59,0.0028207132177376
275.61,0.0028207132226557
275.64,0.0028207132233127
275.66,0.0028207132233791
275.69,0.0028207132233985
275.72,0.0028207132234005
275.74,0.0028207132234006
275.77,0.0028207132234007
275.79,0.0028207132234007
275.82,0.0028207132234007
311.14,0.0028207132234007
311.16,0.0028207132234007
311.19,0.0028207132234007
311.22,0.0028207132234007
311.24,0.0028207132234007
311.27,0.0028207132234006
311.29,0.0028207132234
311.32,0.0028207132233982
311.35,0.002820713223382
311.37,0.0028207132233361
311.4,0.0028207132229615
311.43,0.0028207132206714
311.45,0.0028207132153608
311.48,0.0028207131788827
311.5,0.0028207131023869
311.53,0.0028207126224656
311.56,0.0028207104915177
311.58,0.0028207069973917
311.61,0.0028206883756322
311.63,0.0028206206510512
311.66,0.0028205377507581
311.69,0.0028201464557143
311.71,0.0028197723435837
311.74,0.0028179445019836
311.77,0.0028131974933164
311.79,0.0028118380619204
311.82,0.0028021524003229
311.84,0.0028123138862409
311.87,0.0028112260882342
311.9,0.0028210983369589
311.92,0.0030200947969987
311.95,0.0033195777234659
311.97,0.0039040095816433
312.0,0.0053189175821217
312.03,0.0073943816653272
312.05,0.0108261146839283
312.08,0.0153246307429997
312.11,0.0211998677430789
312.13,0.0284948987181958
312.16,0.0366131691779825
312.18,0.0448870175165095
312.21,0.0524503474772992
312.24,0.0585087493664201
312.26,0.062032000387279
312.29,0.0626212906974961
312.31,0.0604001710014599
312.34,0.0549057771080866
312.37,0.0476480023920788
312.39,0.039392458759559
312.42,0.0310115024340133
312.45,0.0233129368203487
312.47,0.0169258362344454
312.5,0.0119668474759467
312.52,0.0081986086943502
312.55,0.0059458317002466
312.58,0.0045172218878601
312.6,0.0035267479228009
312.63,0.0031210567813816
312.65,0.0028540244086307
312.68,0.0028238276369945
312.71,0.0028163386293769
312.73,0.002799499246749
312.76,0.0028099970445602
312.78,0.0028109890527991
312.81,0.0028170313967556
312.84,0.002819426752289
312.86,0.00281991187823
312.89,0.0028204582936288
312.92,0.0028205752518541
312.94,0.002820675239713
312.97,0.0028207034616521
312.99,0.0028207088458012
313.02,0.0028207122375985
313.05,0.0028207130199035
313.07,0.0028207131471104
313.1,0.0028207132092728
313.12,0.0028207132185134
313.15,0.0028207132225951
313.18,0.0028207132232794
313.2,0.0028207132233649
313.23,0.0028207132233959
313.26,0.0028207132233994
313.28,0.0028207132234005
313.31,0.0028207132234007
313.33,0.0028207132234007
313.36,0.0028207132234007
313.39,0.0028207132234007
313.41,0.0028207132234007
330.82,0.0028207132234007
330.85,0.0028207132234007
330.87,0.0028207132234007
330.9,0.0028207132234007
330.93,0.0028207132234007
330.95,0.0028207132234007
330.98,0.0028207132234006
331.01,0.0028207132234005
331.03,0.0028207132234001
331.06,0.0028207132233973
331.08,0.0028207132233902
331.11,0.002820713223339
331.14,0.0028207132230669
331.16,0.0028207132225155
331.19,0.0028207132190898
331.21,0.0028207132037814
331.24,0.0028207131783
331.27,0.0028207130395119
331.29,0.0028207128339161
331.32,0.0028207117626576
331.35,0.0028207081450765
331.37,0.0028207043356385
331.4,0.0028206863905674
331.42,0.0028206724911205
331.45,0.0028205988614549
331.48,0.0028204134980816
331.5,0.0028204014250098
331.53,0.0028200919715609
331.55,0.0028195177609148
331.58,0.0028211461480752
331.61,0.0028229646656302
331.63,0.0028320275097852
331.66,0.002844508047516
331.69,0.0028673574410819
331.71,0.0029231830549104
331.74,0.0030037896679821
331.76,0.0031416703048102
331.79,0.0033233004691131
331.82,0.003567125456738
331.84,0.0038929565455507
331.87,0.0042706016867716
331.89,0.0046904266893479
331.92,0.0051078961793192
331.95,0.0054950264070342
331.97,0.0058008619198974
332.0,0.0059919126217548
332.03,0.0060543774916164
332.05,0.005936411298462
332.08,0.0056966341965524
332.1,0.0053552414892119
332.13,0.0049490491528198
332.16,0.0045278813848958
332.18,0.004119117661591
332.21,0.0037623289751287
332.23,0.0034614366056947
332.26,0.0032438447104873
332.29,0.0030856508055962
332.31,0.0029671443060097
332.34,0.0029006006627568
332.36,0.0028549621798123
332.39,0.0028377295346134
332.42,0.0028285731330452
332.44,0.0028217525607286
332.47,0.0028207069108519
332.5,0.0028196030231444
332.52,0.002820166698265
332.55,0.0028204523452126
332.57,0.0028204796430949
332.6,0.0028206261551178
332.63,0.0028206829387784
332.65,0.0028206939333984
332.68,0.0028207069867559
332.7,0.0028207097464577
332.73,0.0028207122442745
332.76,0.0028207129678576
332.78,0.00282071310521
332.81,0.0028207131950478
332.84,0.0028207132112886
332.86,0.0028207132207959
332.89,0.0028207132228776
332.91,0.0028207132232068
332.94,0.0028207132233656
332.97,0.0028207132233948
332.99,0.0028207132233988
333.02,0.0028207132234004
333.04,0.0028207132234006
333.07,0.0028207132234007
333.1,0.0028207132234007
333.12,0.0028207132234007
333.15,0.0028207132234007
333.18,0.0028207132234007
378.27,0.0028207132234007
378.3,0.0028207132234007
378.32,0.0028207132234007
378.35,0.0028207132234007
378.37,0.0028207132234007
378.4,0.0028207132234007
378.43,0.0028207132234006
378.45,0.0028207132234006
378.48,0.0028207132234002
378.5,0.0028207132233984
378.53,0.0028207132233948
378.56,0.0028207132233722
378.58,0.0028207132233304
378.61,0.0028207132230824
378.64,0.00282071322205
378.66,0.0028207132204739
378.69,0.0028207132120601
378.71,0.0028207132003183
378.74,0.0028207131384368
378.77,0.0028207129291986
378.79,0.0028207127096273
378.82,0.0028207116299639
378.84,0.0028207084339464
378.87,0.0028207062629413
378.9,0.0028206946495449
378.92,0.0028206911902889
378.95,0.0028206546141104
378.98,0.0028205656545756
379.0,0.002820619109956
379.03,0.0028205478988551
379.05,0.0028210558980484
379.08,0.0028214428944651
379.11,0.0028221769353841
379.13,0.0028271390050549
379.16,0.0028338781037311
379.18,0.0028458142994605
379.21,0.0028765020930169
379.24,0.0029196558423147
379.26,0.0029984350202151
379.29,0.0031022411340547
379.32,0.0032477197318928
379.34,0.0034657372660653
379.37,0.0037358941672754
379.39,0.0040827433256418
379.42,0.0044730143014827
379.45,0.0049063184531592
379.47,0.0053681881289575
379.5,0.0058123718220562
379.52,0.006217241370687
379.55,0.0065111834311277
379.58,0.0067017036601807
379.6,0.0067569426564284
379.63,0.0066712620855279
379.66,0.0064670547853103
379.68,0.00612309117595
379.71,0.0057132931761441
379.73,0.0052594188989512
379.76,0.0048072126532461
379.79,0.004381629935701
379.81,0.0039899964108832
379.84,0.0036699232309965
379.86,0.0034041286200412
379.89,0.0032162583305467
379.92,0.003077722079761
379.94,0.0029708196339828
379.97,0.0029084040777265
380.0,0.0028635961784541
380.02,0.0028440365381699
380.05,0.002832620101537
380.07,0.00282441119558
380.1,0.002822592291323
380.13,0.0028216185085538
380.15,0.0028206364232355
380.18,0.0028206404116151
380.2,0.0028205036196743
380.23,0.0028206276588457
380.26,0.0028206801138511
380.28,0.0028206818087149
380.31,0.0028207010280964
380.33,0.0028207043614064
380.36,0.0028207102382816
380.39,0.0028207122747101
380.41,0.0028207126615017
380.44,0.002820713051209
380.47,0.0028207131298933
380.49,0.0028207131973729
380.52,0.0028207132164534
380.54,0.0028207132200953
380.57,0.0028207132225972
380.6,0.0028207132232174
380.62,0.0028207132233243
380.65,0.0028207132233843
380.67,0.0028207132233942
380.7,0.0028207132233994
380.73,0.0028207132234004
380.75,0.0028207132234006
380.78,0.0028207132234007
380.81,0.0028207132234007
380.83,0.0028207132234007
380.86,0.0028207132234007
380.88,0.0028207132234007
380.91,0.0028207132234007
405.09,0.0028207132234007
405.12,0.0028207132234007
405.14,0.0028207132234007
405.17,0.0028207132234007
405.2,0.0028207132234007
405.22,0.0028207132234007
405.25,0.0028207132234006
405.27,0.0028207132234006
405.3,0.0028207132234002
405.33,0.0028207132233984
405.35,0.0028207132233951
405.38,0.0028207132233755
405.4,0.0028207132232917
405.43,0.0028207132231587
405.46,0.0028207132224272
405.48,0.0028207132213397
405.51,0.0028207132154471
405.54,0.0028207131943694
405.56,0.0028207131694074
405.59,0.0028207130436108
405.61,0.0028207129124236
405.64,0.0028207122132251
405.67,0.0028207101154241
405.69,0.0028207086847579
405.72,0.0028207007866713
405.74,0.0028206796510063
405.77,0.0028206755376821
405.8,0.0028206240475672
405.82,0.0028206597266633
405.85,0.0028205678005364
405.88,0.0028203390314434
405.9,0.0028210593837687
405.93,0.0028216068927995
405.95,0.0028253067721595
405.98,0.0028294832703758
406.01,0.0028367182657944
406.03,0.0028616430648684
406.06,0.0028958438879039
406.08,0.0029517152232513
406.11,0.0030721507479152
406.14,0.003236680660715
406.16,0.0035131899010258
406.19,0.0038668407002302
406.22,0.0043423524491345
406.24,0.0050225293341084
406.27,0.0058445725880571
406.29,0.0068759804628352
406.32,0.0080153356741975
406.35,0.0092662031545565
406.37,0.0106026280430258
406.4,0.0118916042241669
406.42,0.0130666063351883
406.45,0.0140081228293449
406.48,0.0146799079642779
406.5,0.0149939973236486
406.53,0.0149202451174575
406.55,0.0145061514516776
406.58,0.0136617202088266
406.61,0.0125870860738702
406.63,0.011323401905056
