Wavelength (nm),Normalized
315.3,0.0002384725785578
315.32,0.0002384724543298
315.35,0.0002384723707987
315.38,0.0002384723279647
315.4,0.0002384723258276
315.43,0.0002384723643875
315.45,0.0002384722167972
315.48,0.0002384712452207
315.5,0.0002384693366726
315.52,0.0002384579092852
315.55,0.0002384101314458
315.57,0.0002383376553166
315.6,0.0002379656303743
315.62,0.0002374808582553
315.65,0.0002367628833403
315.68,0.0002322184535157
315.7,0.0002281469441533
315.73,0.0002073652015989
315.75,0.0001545974842988
315.77,0.0001453523924544
315.8,5.085352247479726e-05
315.82,0.0001928832544513
315.85,0.0002400921605826
315.88,0.0012552327093517
315.9,0.0036515302887586
315.93,0.0065931325835055
315.95,0.0136950156963579
315.98,0.0236468428783621
316.0,0.0425528846258633
316.02,0.0685181023160462
316.05,0.1057502879828598
316.07,0.1599979815006831
316.1,0.2265694786442635
316.12,0.3056483518851858
316.15,0.3894541848250059
316.18,0.4706166747961202
316.2,0.5407419563853281
316.23,0.5924430142205637
316.25,0.6211031798746122
316.27,0.6143622842603615
316.3,0.5817487700297458
316.32,0.525544400869053
316.35,0.451845619188503
316.38,0.3696420047682328
316.4,0.2863565768309354
316.43,0.2112291340575077
316.45,0.1469779986147533
316.48,0.099317629352158
316.5,0.0642676229219054
316.52,0.0380094753874625
316.55,0.0227938723514777
316.57,0.0118255770691152
316.6,0.0066276371646153
316.62,0.0025761603604396
316.65,0.0006820237362767
316.68,0.000360662855497
316.7,2.058354290371574e-05
316.73,0.0001135794687716
316.75,0.0001042100436507
316.77,0.0001861686246366
316.8,0.0002203498953028
316.82,0.0002266417530397
316.85,0.0002351152782459
316.88,0.0002363831238742
316.9,0.000237348559229
316.93,0.0002381579007504
316.95,0.0002383205410899
316.98,0.0002384353299308
317.0,0.0002384641294722
317.02,0.0002384691107673
317.05,0.0002384717836166
317.07,0.0002384722051369
317.1,0.0002384724032315
317.12,0.0002384724296924
317.15,0.0002384724388931
317.18,0.0002384724425933
317.2,0.0002384724430536
318.0,0.0002384724432154
318.02,0.000238472443191
318.05,0.0002384724429147
318.07,0.0002384724422151
318.1,0.0002384724370932
318.12,0.0002384724255307
318.15,0.0002384723950727
318.18,0.0002384721813984
318.2,0.0002384717706456
318.23,0.0002384693462036
318.25,0.0002384594377241
318.27,0.0002384448755005
318.3,0.0002383710866162
318.32,0.0002382784047715
318.35,0.0002378214716565
318.38,0.000237379411005
318.4,0.0002369825687057
318.43,0.0002334790431247
318.45,0.0002321944270676
318.48,0.0002215160090375
318.5,0.0002270279742442
318.52,0.0002149233056183
318.55,0.0001993587812476
318.57,0.0003671997460613
318.6,0.0006038661842789
318.62,0.001372976526559
318.65,0.0028200560102525
318.68,0.0047227570700362
318.7,0.0081035805894685
318.73,0.0126177710522533
318.75,0.0189840439279474
318.77,0.0280546748219515
318.8,0.0391359006626363
318.82,0.0522099836577407
318.85,0.0660732584808403
318.88,0.0796375912882911
318.9,0.0911817150203893
318.93,0.0996816895986057
318.95,0.1039171102643049
318.98,0.1033770525048892
319.0,0.0980615163203584
319.02,0.0895973883707146
319.05,0.078013078681322
319.07,0.0647576714900213
319.1,0.0511808363847454
319.12,0.0381876001148366
319.15,0.0268581285101839
319.18,0.0180680682346851
319.2,0.0111631604591743
319.23,0.0067259380534846
319.25,0.0035995227736935
319.27,0.0021178906775524
319.3,0.0012675842941146
319.32,0.0006553550080619
319.35,0.0004548288357604
319.38,0.0002708527327101
319.4,0.0002048785190096
319.43,0.0002180225247842
319.45,0.0002147747827853
319.48,0.0002289571466556
319.5,0.0002349854311856
319.52,0.0002360883245594
319.55,0.0002377197018891
319.57,0.0002380478913413
319.6,0.0002383614813317
319.62,0.0002384123973275
319.65,0.0002384433796479
319.68,0.0002384652755082
319.7,0.0002384693151032
319.73,0.000238471743734
319.75,0.0002384721623353
319.77,0.0002384723875177
319.8,0.0002384724331433
319.82,0.0002384724398405
319.85,0.0002384724427215
319.88,0.0002384724430817
319.9,0.0002384724431981
319.93,0.0002384724432413
324.38,0.0002384724432463
324.4,0.0002384724432481
324.43,0.0002384724432483
324.45,0.0002384724432483
324.48,0.0002384724432483
324.5,0.0002384724432483
324.52,0.0002384724432483
324.55,0.0002384724432483
324.57,0.0002384724432483
324.6,0.0002384724432483
324.62,0.0002384724432483
324.65,0.0002384724432483
324.68,0.0002384724432483
324.7,0.0002384724432483
324.73,0.0002384724432483
324.75,0.0002384724432483
324.77,0.0002384724432483
324.8,0.0002384724432484
324.82,0.0002384724432484
324.85,0.0002384724432484
324.88,0.0002384724432484
324.9,0.0002384724432484
324.93,0.0002384724432484
324.95,0.0002384724432484
324.98,0.0002384724432484
325.0,0.0002384724432484
325.02,0.0002384724432484
325.05,0.0002384724432484
325.07,0.0002384724432484
325.1,0.0002384724432484
325.12,0.0002384724432484
325.15,0.0002384724432484
325.18,0.0002384724432484
325.2,0.0002384724432484
325.23,0.0002384724432484
325.25,0.0002384724432484
325.27,0.0002384724432484
325.3,0.0002384724432484
325.32,0.0002384724432484
325.35,0.0002384724432484
325.38,0.0002384724432484
325.4,0.0002384724432484
325.43,0.0002384724432484
325.45,0.0002384724432484
325.48,0.0002384724432484
325.5,0.0002384724432484
325.52,0.0002384724432484
325.55,0.0002384724432484
325.57,0.0002384724432484
325.6,0.0002384724432484
325.62,0.0002384724432484
325.65,0.0002384724432484
325.68,0.0002384724432484
325.7,0.0002384724432484
325.73,0.0002384724432484
325.75,0.0002384724432484
325.77,0.0002384724432484
325.8,0.0002384724432484
325.82,0.0002384724432484
325.85,0.0002384724432484
325.88,0.0002384724432485
325.9,0.0002384724432485
325.93,0.0002384724432485
325.95,0.0002384724432485
325.98,0.0002384724432485
326.0,0.0002384724432485
326.02,0.0002384724432485
326.05,0.0002384724432485
326.07,0.0002384724432485
326.1,0.0002384724432485
326.12,0.0002384724432485
326.15,0.0002384724432485
326.18,0.0002384724432485
326.2,0.0002384724432485
326.23,0.0002384724432485
326.25,0.0002384724432485
326.27,0.0002384724432484
326.3,0.0002384724432474
326.32,0.0002384724432447
326.35,0.0002384724432215
332.27,0.000238472443158
332.3,0.0002384724426535
332.33,0.0002384724414043
332.35,0.00023847243232
332.38,0.000238472412004
332.4,0.000238472358746
332.43,0.0002384719847074
332.45,0.000238470239576
332.48,0.0002384672175773
332.5,0.0002384609349063
332.52,0.0002384214930216
332.55,0.0002382721123923
332.58,0.0002380807347621
332.6,0.0002371474739486
332.62,0.0002361546517967
332.65,0.0002350456174611
332.68,0.0002265572528418
332.7,0.0002027831681056
332.73,0.0001942074298541
332.75,0.0001362921312983
332.77,0.0001709555352983
332.8,0.0001067685967651
332.83,0.0004714141180353
332.85,0.0008046761832677
332.88,0.002673101058421
332.9,0.006642205831911
332.93,0.0115861324385722
332.95,0.0197121251153291
332.98,0.0376637833937172
333.0,0.0666058702037245
333.02,0.1038616643343383
333.05,0.154511969441761
333.08,0.2261534219197389
333.1,0.3123737611270046
333.12,0.4146919722271156
333.15,0.5234909236068319
333.18,0.6292111212583298
333.2,0.7256218865807081
333.23,0.801092403600663
333.25,0.8479139177324846
333.27,0.8515907127140556
333.3,0.8228833804434643
333.33,0.7620906428254821
333.35,0.6756460263565551
333.38,0.5735534131833688
333.4,0.4647037105242521
333.43,0.3617869707824179
333.45,0.2706223595516357
333.48,0.1916183554533725
333.5,0.1314381392400213
333.52,0.084115121341146
333.55,0.0534217647866517
333.58,0.0303776102478202
333.6,0.0176100467425341
333.62,0.0078866778283037
333.65,0.0028710241617555
333.68,0.0016040655752593
333.7,0.0009187375926661
333.73,0.0002050314536193
333.75,0.0
333.77,0.0001361063335058
333.8,0.0002005359658205
333.83,0.0002037583517067
333.85,0.000227386260039
333.88,0.0002292712963141
333.9,0.0002325444367909
333.93,0.0002366056986291
333.95,0.0002379281151426
333.98,0.0002381920156474
334.0,0.0002383989374944
334.02,0.0002384383783492
334.05,0.0002384644781269
334.08,0.0002384691234227
334.1,0.0002384717768356
334.12,0.0002384721748881
334.15,0.0002384723413012
334.18,0.0002384724244389
334.2,0.0002384724401559
334.23,0.0002384724422095
334.25,0.0002384724429135
334.27,0.0002384724431972
334.98,0.0002384724432399
335.0,0.000238472443242
335.02,0.0002384724432179
335.05,0.0002384724430609
335.08,0.0002384724426966
335.1,0.0002384724401735
335.12,0.0002384724347951
335.15,0.0002384724213074
335.18,0.0002384723290255
335.2,0.0002384719173078
335.23,0.0002384712414455
335.25,0.0002384675812794
335.27,0.0002384622315422
335.3,0.0002384344369494
335.33,0.0002384002969834
335.35,0.0002382292575255
335.38,0.0002380646351489
335.4,0.0002379148210261
335.43,0.0002365509987285
335.45,0.0002328521977658
335.48,0.0002321605025415
335.5,0.0002364627422662
335.52,0.0002306612916675
335.55,0.000217087154021
335.58,0.0002760732250179
335.6,0.0003454729032393
335.62,0.0006471690059278
335.65,0.0012585890700626
335.68,0.0020343469652229
335.7,0.0032736465761122
335.73,0.0057947288008554
335.75,0.0092942317030564
335.77,0.0147456989320225
335.8,0.021691739456044
335.83,0.030858286809229
335.85,0.0414522657788206
335.88,0.0534403248502612
335.9,0.0656407406071422
335.93,0.0769767809492588
335.95,0.0867124108254595
335.98,0.0935504067809662
336.0,0.0963694768407054
336.02,0.0961046834554338
336.05,0.0917830736591052
336.08,0.0840119805285311
336.1,0.0736379504974228
336.12,0.0617757665477706
336.15,0.0494795239482801
336.18,0.0381118410953455
336.2,0.0281189141814623
336.23,0.0194250832370342
336.25,0.0127771357295637
336.27,0.0083844096810324
336.3,0.0053368632729831
336.33,0.003059921744348
336.35,0.0018301355771265
336.38,0.000892718112928
336.4,0.0004223288264203
336.43,0.0003210975511318
336.45,0.0002750240932494
336.48,0.0002280611346101
336.5,0.0002337516663067
336.52,0.0002284634950297
336.55,0.0002348050820303
336.58,0.0002352109092779
336.6,0.0002374483925641
336.62,0.0002376359796505
336.65,0.0002379408940618
336.68,0.0002383122291112
336.7,0.0002384295487754
336.73,0.0002384482944073
336.75,0.0002384602992977
336.77,0.000238469347705
336.8,0.0002384717186873
336.83,0.0002384721408441
336.85,0.0002384723823843
336.88,0.0002384724186331
336.9,0.0002384724338445
336.93,0.0002384724414809
336.95,0.0002384724429419
336.98,0.0002384724431473
337.0,0.0002384724432325
337.02,0.0002384724432434
338.95,0.0002384724432471
338.98,0.0002384724432464
339.0,0.0002384724432425
339.02,0.0002384724432091
339.05,0.0002384724430098
339.08,0.0002384724425568
339.1,0.0002384724394641
339.12,0.0002384724329864
339.15,0.0002384724169798
339.18,0.0002384723082842
339.2,0.0002384718293596
339.23,0.0002384710552524
339.25,0.000238466890468
339.27,0.0002384608854952
339.3,0.0002384297126035
339.33,0.0002383919837966
339.35,0.0002382025655417
339.38,0.0002380229194801
339.4,0.0002378636711746
339.43,0.0002363654564533
339.45,0.0002322868134671
339.48,0.000231539086645
339.5,0.0002362962323182
339.52,0.0002296196689817
339.55,0.0002137722090583
339.58,0.0002780669689047
339.6,0.0003509216442378
339.62,0.0006836633893676
339.65,0.0013620880816857
339.68,0.0022148293945359
339.7,0.0035816503993531
339.73,0.0064356739091696
339.75,0.0104110261840204
339.77,0.0167280567975997
339.8,0.0248452506992625
339.83,0.0357790871521331
339.85,0.0485718495795293
339.88,0.0634188942460688
339.9,0.0789187248855614
339.93,0.0937259609277387
339.95,0.1069957067704684
339.98,0.1171337150523963
340.0,0.1225618536728204
340.02,0.1242340045624979
340.05,0.1207287073986766
340.08,0.11253993815641
340.1,0.1005704187097118
340.12,0.0861626839096525
340.15,0.0705538512193293
340.18,0.0555541282150406
340.2,0.0419598980615837
340.23,0.0298513125626706
340.25,0.0202665545428054
340.27,0.0136105258217006
340.3,0.0088409677502941
340.33,0.0052131496400087
340.35,0.0031313365612335
340.38,0.0015428873920509
340.4,0.0007001009080662
340.43,0.0004623448266732
340.45,0.0003444936708243
340.48,0.0002430008299193
340.5,0.0002403953790381
340.52,0.0002248752986696
340.55,0.0002335303597243
340.58,0.0002329279409059
340.6,0.0002367090154971
340.62,0.0002368129693773
340.65,0.0002373450102804
340.68,0.0002381193257998
340.7,0.0002383740884274
340.73,0.0002384132515892
340.75,0.0002384411622432
340.77,0.0002384640697106
340.8,0.0002384703828173
340.83,0.0002384715339133
340.85,0.0002384721984169
340.88,0.0002384722247642
340.9,0.0002384720878382
340.93,0.0002384709125135
340.95,0.0002384660886115
340.98,0.0002384592538048
341.0,0.0002384477147633
341.02,0.0002383761639837
341.05,0.0002381394062844
341.08,0.000237914688891
341.1,0.0002368446973116
341.12,0.0002361556552268
341.15,0.0002361620781282
341.18,0.000230560386867
341.2,0.0002163760797006
341.23,0.0002236232768701
341.25,0.0002140037858255
341.27,0.0002951796399858
341.3,0.000375740563785
341.33,0.0007678067780598
341.35,0.0012902797851628
341.38,0.0026642226031895
341.4,0.005093135913658
341.43,0.0082042376080562
341.45,0.0128197963620061
341.48,0.0207167488921632
341.5,0.0318561987765291
341.52,0.0454227609927219
341.55,0.0620420063759496
341.58,0.0822754000406561
341.6,0.1042438176948918
341.62,0.1269296710311554
341.65,0.1477115338352279
341.68,0.1647829246935176
341.7,0.1769709985190699
341.73,0.1823913860921754
341.75,0.1805860052329699
341.77,0.1700071620306268
341.8,0.1541632352012485
341.83,0.134082299763414
341.85,0.1117770024116237
341.88,0.0889868636861838
341.9,0.0676769706099141
341.93,0.0498824086090248
341.95,0.0354081091352591
341.98,0.0235932899019393
342.0,0.015489686274723
342.02,0.0093489663604456
342.05,0.0057846650171057
342.08,0.0031529640271389
342.1,0.001865094781531
342.12,0.0008586854023723
342.15,0.0003852570292608
342.18,0.0003178279675619
342.2,0.000280279749842
342.23,0.0002221745100636
342.25,0.0002096043503258
342.27,0.000226820325699
342.3,0.0002343199479406
342.33,0.0002351574669071
342.35,0.0002374494736559
342.38,0.0002376889094367
342.4,0.0002379885504562
342.43,0.0002383244958592
342.45,0.0002384305027955
342.48,0.0002384513193964
342.5,0.0002384670201367
342.52,0.0002384699700201
342.55,0.0002384718734218
342.58,0.0002384722081833
342.6,0.0002384723965078
342.62,0.0002384724245436
342.65,0.0002384724361666
342.68,0.000238472441945
342.7,0.0002384724430339
342.73,0.000238472443176
342.75,0.0002384724432249
342.77,0.0002384724432447
343.85,0.0002384724432474
343.88,0.0002384724432469
343.9,0.0002384724432443
343.93,0.0002384724432235
343.95,0.0002384724431097
343.98,0.0002384724428729
344.0,0.0002384724422834
344.02,0.0002384724382422
344.05,0.0002384724200894
344.08,0.000238472389944
344.1,0.0002384722250068
344.12,0.0002384719782782
344.15,0.0002384715420336
344.18,0.0002384688124774
344.2,0.0002384595866036
344.23,0.0002384503526431
344.25,0.0002384062891216
344.27,0.0002383744837311
344.3,0.0002381973490887
344.33,0.0002381471504121
344.35,0.0002376347335054
344.38,0.0002379296821343
344.4,0.0002395288083633
344.43,0.0002397440110509
344.45,0.0002398252039791
344.48,0.0002545324026148
344.5,0.0002892565034469
344.52,0.0003317268972027
344.55,0.0004027481401175
344.58,0.0005741489204149
344.6,0.0008179413696708
344.62,0.0012432013387485
344.65,0.0018563576689271
344.68,0.0026031589719705
344.7,0.0035487037315876
344.73,0.0047610198871522
344.75,0.0061291913665342
344.77,0.0075900751196135
344.8,0.0090508299506075
344.83,0.0103849439884045
344.85,0.0114595205742333
344.88,0.0121592373306467
344.9,0.01236538688935
344.93,0.0120909872365092
344.95,0.0114035746781313
344.98,0.0103381798603228
345.0,0.0089799165148559
345.02,0.0075476188758427
345.05,0.00611261387304
345.08,0.0047418010631315
345.1,0.0035599778107178
345.12,0.0025313199699802
345.15,0.0017416509730477
345.18,0.001220538722832
345.2,0.0008496981494786
345.23,0.0005624002350669
345.25,0.0003923634850199
345.27,0.0003236753545146
345.3,0.0002849654607625
345.33,0.0002553170381476
345.35,0.0002470939185591
345.38,0.000238532734762
345.4,0.0002359131093692
345.43,0.0002373415884461
345.45,0.0002380174432433
345.48,0.000238025981937
345.5,0.0002383108015928
345.52,0.0002383563796586
345.55,0.0002384353102377
345.58,0.0002384502577281
345.6,0.0002384663438853
345.62,0.0002384688271296
345.65,0.0002384705525185
345.68,0.0002384719519742
345.7,0.0002384723295667
345.73,0.0002384723897873
345.75,0.0002384724199434
345.77,0.0002384724381243
345.8,0.0002384724422111
345.83,0.0002384724428635
345.85,0.0002384724431806
345.88,0.0002384724432238
345.9,0.0002384724432389
345.93,0.000238472443239
346.2,0.0002384724431968
346.23,0.0002384724430916
346.25,0.0002384724423277
346.27,0.0002384724406068
346.3,0.000238472429001
346.33,0.0002384724053143
346.35,0.0002384722573427
346.38,0.0002384719860244
346.4,0.0002384713944251
346.43,0.000238467595227
346.45,0.0002384526193028
346.48,0.0002384320761353
346.5,0.0002383985690359
346.52,0.000238188570326
346.55,0.0002375023615996
346.58,0.0002368777225338
346.6,0.0002338704878748
346.62,0.0002320694185852
346.65,0.0002324375807551
346.68,0.0002173517706887
346.7,0.0001789189081723
346.73,0.0002013536005333
346.75,0.0001783460095556
346.77,0.000408296773721
346.8,0.0006367961707843
346.83,0.0017280399138455
346.85,0.0031680117500366
346.88,0.0069739665365723
346.9,0.0137139653562202
346.93,0.0223155918541892
346.95,0.0350751961501557
346.98,0.0572632514432054
347.0,0.088902859942121
347.02,0.1275567197536817
347.05,0.1754200815561131
347.08,0.2349452320767115
347.1,0.3006335657699379
347.12,0.3703560130094586
347.15,0.4364369144521711
347.18,0.4931623175036074
347.2,0.5369269632172862
347.23,0.561635666959429
347.25,0.5650222300272063
347.27,0.54113485430113
347.3,0.4998920503519426
347.33,0.4435628468794664
347.35,0.3778454428282441
347.38,0.3081921732929863
347.4,0.240603339397193
347.43,0.1818844235753672
347.45,0.1325305966901815
347.48,0.0911536508835463
347.5,0.0614205358919398
347.52,0.0384074342812196
347.55,0.0242193182533277
347.58,0.0135743606612443
347.6,0.0079329855407593
347.62,0.0035562140719398
347.65,0.0013463010535181
347.68,0.0008353382887943
347.7,0.0005474421287406
347.73,0.0002296263663268
347.75,0.0001365277178568
347.77,0.0001960520810094
347.8,0.0002233167534498
347.83,0.0002237038460984
347.85,0.0002338099026923
347.88,0.0002343553023949
347.9,0.0002357308937413
347.93,0.0002375900371334
347.95,0.0002382085110571
347.98,0.000238331090472
348.0,0.000238434044571
348.02,0.0002384539074546
348.05,0.0002384679197632
348.08,0.0002384704720129
348.1,0.000238472027081
348.12,0.0002384722660372
348.15,0.0002384723723527
348.18,0.0002384724292874
348.2,0.0002384724407904
348.23,0.0002384724423671
348.25,0.0002384724429446
348.27,0.0002384724431881
348.7,0.0002384724431737
348.73,0.0002384724430424
348.75,0.0002384724420569
348.77,0.0002384724398423
348.8,0.000238472424943
348.83,0.0002384723946272
348.85,0.0002384722054339
348.88,0.0002384718593035
348.9,0.0002384711050274
348.93,0.0002384662487707
348.95,0.0002384471113732
348.98,0.0002384208006785
349.0,0.0002383776725971
349.02,0.0002381074783974
349.05,0.0002372194271004
349.08,0.0002364016278271
349.1,0.0002324621088421
349.12,0.0002300181579653
349.15,0.0002302568090018
349.18,0.0002096783871349
349.2,0.0001568564560069
349.23,0.0001830412355549
349.25,0.0001420443614888
349.27,0.0004358763836345
349.3,0.0007059215672695
349.33,0.0021423850561889
349.35,0.0040037806118678
349.38,0.0091353089769431
349.4,0.0183815800181838
349.43,0.0301269212531155
349.45,0.0477296157467906
349.48,0.0792385365568098
349.5,0.1249607320679848
349.52,0.1812463535867755
349.55,0.2520486647898394
349.58,0.3423459919978369
349.6,0.4438848376483991
349.62,0.55480829921485
349.65,0.6633643110749597
349.68,0.7602557042199097
349.7,0.8397556652911213
349.73,0.8916183473990438
349.75,0.9109028902387576
349.77,0.8864300195793292
349.8,0.8326108662172088
349.83,0.7517517204792873
349.85,0.6521506052139499
349.88,0.5426473304716044
349.9,0.4325390652610692
349.93,0.3335778752045742
349.95,0.2481374202796392
349.98,0.1749227724734907
350.0,0.1203790927146554
350.02,0.0774401206346471
350.05,0.0498139462651128
350.08,0.0288348216651143
350.1,0.0171046287751957
