Wavelength (nm),Normalized
402.88,1.758439670718117e-05
402.9,1.758439343035756e-05
402.93,1.758439129558056e-05
402.95,1.758439030285016e-05
402.98,1.7584390452166363e-05
403.0,1.7584391743529176e-05
403.02,1.7584386218111335e-05
403.05,1.7584364109427277e-05
403.08,1.7584332895337425e-05
403.1,1.7584169469653364e-05
403.12,1.7583957954605066e-05
403.15,1.7583630759573872e-05
403.18,1.7581399935802696e-05
403.2,1.7574053506504198e-05
403.23,1.756744482202241e-05
403.25,1.7533825409748e-05
403.27,1.751124531855411e-05
403.3,1.737006039411775e-05
403.33,1.7322613087022953e-05
403.35,1.6838343307198476e-05
403.38,1.693751669944179e-05
403.4,1.7968705467947136e-05
403.43,1.6885640013498133e-05
403.45,1.345008584345533e-05
403.48,2.29147779651239e-05
403.5,5.090870218425642e-05
403.52,7.415021823546937e-05
403.55,0.0001088815478345
403.58,0.000282693378217
403.6,0.0005129241977296
403.62,0.0010938602743449
403.65,0.002104503612558
403.68,0.0033458177333144
403.7,0.0051473255082042
403.73,0.00846683325997
403.75,0.0128382121405203
403.77,0.0195223541816649
403.8,0.0278497255961636
403.83,0.0392068519747118
403.85,0.0524944485532477
403.88,0.0687810248741584
403.9,0.0869384648367857
403.93,0.1054202850742099
403.95,0.1241626214168548
403.98,0.1424353630560346
404.0,0.1581215688432615
404.02,0.1713888064062378
404.05,0.1801459051277246
404.08,0.1837940182195713
404.1,0.1820303197491335
404.12,0.1749984560186084
404.15,0.1628521330094408
404.18,0.1473078574614806
404.2,0.1296815241821882
404.23,0.1104002996984375
404.25,0.0913089516604851
404.27,0.073426155734963
404.3,0.057421472337674
404.33,0.0429648256401297
404.35,0.031421018243309
404.38,0.0215089307632914
404.4,0.0141581914736283
404.43,0.0095211838038162
404.45,0.006239633292962
404.48,0.0037129190988924
404.5,0.0023197734995699
404.52,0.0012679202710969
404.55,0.0007738161947003
404.58,0.0003871564752689
404.6,0.000230563617372
404.62,9.096827403959303e-05
404.65,3.0301233258337003e-05
404.68,2.4572319895064032e-05
404.7,1.353100827030636e-05
404.73,9.817137422201535e-06
404.75,0.0
404.77,4.3894596746332745e-05
404.8,6.788804127528217e-05
404.83,0.0002688432266225
404.85,0.0004818943330272
404.88,0.0012449868060941
404.9,0.0027348701865841
404.93,0.0044733391294054
404.95,0.0071207410706457
404.98,0.0132491322854092
405.0,0.0234130298100045
405.02,0.0361304156608597
405.05,0.0538598133127728
405.08,0.0828423853518562
405.1,0.1196787412969307
405.12,0.1714415605477039
405.15,0.2361300024891219
405.18,0.307987829893838
405.2,0.3895502594559963
405.23,0.4826654613644224
405.25,0.5785479626846929
405.27,0.6708915280202451
405.3,0.756499990163076
405.33,0.8293514475918268
405.35,0.8823887394413941
405.38,0.912207995714604
405.4,0.9128710469261876
405.43,0.8870453353778116
405.45,0.8393640830452886
405.48,0.7700889895255156
405.5,0.6839711821525458
405.52,0.5927164291590857
405.55,0.4995766697983788
405.58,0.4062809854093341
405.6,0.3216148489263752
405.62,0.2431921931938493
405.65,0.1777751050146948
405.68,0.1290795263474498
405.7,0.0906434594973191
405.73,0.0586588868533574
405.75,0.0365251988967438
405.77,0.0238303733559659
405.8,0.0151984318379651
405.83,0.008532529474661
405.85,0.0050888875000268
405.88,0.00229313472924
405.9,0.0008508249625146
405.93,0.0004852139975916
405.95,0.0002753338204349
405.98,7.62569961491883e-05
406.0,5.395160426146398e-05
406.02,1.2146033053706895e-05
406.05,1.884697239221149e-05
406.08,1.2159576932449034e-05
406.1,1.6508993136631176e-05
406.12,1.500393817691575e-05
406.15,1.5339687759179296e-05
406.18,1.684639207135812e-05
406.2,1.7370471667534905e-05
406.23,1.7409355355494422e-05
406.25,1.747117542321923e-05
406.27,1.7549115828787162e-05
406.3,1.7574239423347814e-05
406.33,1.7578935382137496e-05
406.35,1.7583000892512634e-05
406.38,1.7583621369353856e-05
406.4,1.7584004811673615e-05
406.43,1.75842931772017e-05
406.45,1.758436898775186e-05
406.48,1.7584382531344606e-05
406.5,1.7584390855103443e-05
406.52,1.7584392279326745e-05
406.55,1.7584393080326203e-05
406.58,1.7584393210345563e-05
406.6,1.7584393275991576e-05
406.62,1.758439328263091e-05
409.15,1.758439327915306e-05
409.18,1.7584393230084365e-05
409.2,1.7584392991198197e-05
409.23,1.7584392567407604e-05
409.25,1.7584390092611194e-05
409.27,1.7584385947793994e-05
409.3,1.758436241800275e-05
409.33,1.7584326492882148e-05
409.35,1.7584129593603284e-05
409.38,1.7583858892563412e-05
409.4,1.7583410582356082e-05
409.43,1.7580421521522837e-05
409.45,1.7570248667686804e-05
409.48,1.756008905662112e-05
409.5,1.7548979044576817e-05
409.52,1.7457128972547193e-05
409.55,1.7178344964097178e-05
409.58,1.70197157735575e-05
409.6,1.605956605445181e-05
409.62,1.5900347155750836e-05
409.65,1.7035476184272842e-05
409.68,1.3493547652089318e-05
409.7,3.275691339438163e-06
409.73,1.5258673561425207e-05
409.75,1.2392570642867348e-05
409.77,9.35801011086663e-05
409.8,0.0001610566038646
409.83,0.0005101701386309
409.85,0.0009122501036827
409.88,0.0021324329805608
409.9,0.0044060546688849
409.93,0.007111442080673
409.95,0.0111518518923922
409.98,0.0197977349423385
410.0,0.0336447458457391
410.02,0.0508731537187471
410.05,0.0743741325675888
410.08,0.1112140389876919
410.1,0.1572380035451122
410.12,0.2199478397213428
410.15,0.2964227196468459
410.18,0.3799160454659953
410.2,0.4726475001984178
410.23,0.5757288855120153
410.25,0.6792204986278713
410.27,0.775332301460403
410.3,0.8616129868753082
410.33,0.9316492134793292
410.35,0.9785492133691088
410.38,1.0
410.4,0.9908915521871452
410.43,0.9548743500057436
410.45,0.8980741463717394
410.48,0.8232839816409347
410.5,0.7364557833893335
410.52,0.6482934941457503
410.55,0.5643528676475861
410.58,0.4893264483909224
410.6,0.4300514157255518
410.62,0.3867532248157877
410.65,0.3643405553250756
410.68,0.3625120606853666
410.7,0.3747274700211316
410.73,0.3964646616376598
410.75,0.4260913046405702
410.77,0.4580065246723073
410.8,0.4864794112273947
410.83,0.5059713711977365
410.85,0.5152620767287243
410.88,0.5109733987671413
410.9,0.4923356239140875
410.93,0.4623102921527616
410.95,0.423240421129095
410.98,0.3757556284148191
411.0,0.3236849533917778
411.02,0.2717431310249814
411.05,0.2224854381924853
411.08,0.1754181665479222
411.1,0.1350306550665727
411.12,0.0987582772861392
411.15,0.0698472769061732
411.18,0.0495153633059495
411.2,0.0339324822595121
411.23,0.0211461624566128
411.25,0.0126428383758862
411.27,0.0081002224516917
411.3,0.005086229673595
411.33,0.0027529952136684
411.35,0.0016265609138566
411.38,0.0006912521465453
411.4,0.000230353192552
411.43,0.0001385365768852
411.45,8.530886418373357e-05
411.48,2.7259131517375692e-05
411.5,2.497280401035231e-05
411.52,1.3767265163148504e-05
411.55,1.709509152996971e-05
411.58,1.5520932801948284e-05
411.6,1.7105151031693526e-05
411.62,1.6759093325692257e-05
411.65,1.6905409261130094e-05
411.68,1.7363981642094362e-05
411.7,1.7520793132326036e-05
411.73,1.753404222548225e-05
411.75,1.7550721447357207e-05
411.77,1.757075431480133e-05
411.8,1.7568312838044757e-05
411.83,1.7560671705402513e-05
411.85,1.751283743499308e-05
411.88,1.7477410048078976e-05
411.9,1.746286210091607e-05
411.93,1.7116028102781553e-05
411.95,1.6120395934811522e-05
411.98,1.5998063359074187e-05
412.0,1.723967228760713e-05
412.02,1.477822978976437e-05
412.05,7.517017355247481e-06
412.08,2.03114835751634e-05
412.1,2.3700838046928687e-05
412.12,9.961725931709576e-05
412.15,0.0002772427747563
412.18,0.0004506286132274
412.2,0.0007146549547596
412.23,0.0016497006318712
412.25,0.0029091300159057
412.27,0.0057275228345215
412.3,0.0094734742956199
412.33,0.0164267926423256
412.35,0.025476676848949
412.38,0.0401409745579033
412.4,0.0605741846900564
412.43,0.084632801146884
412.45,0.1147939089907604
412.48,0.1554259298524103
412.5,0.2043153496625687
412.52,0.2583787879699739
412.55,0.3169875739962351
412.58,0.3806656395064003
412.6,0.4432963148831399
412.62,0.5030440045366877
412.65,0.5530554040431636
412.68,0.5898250110577011
412.7,0.6129991095055799
412.73,0.6192412884151692
412.75,0.6082078913909961
412.77,0.5760682517501619
412.8,0.5319238642919242
412.83,0.4764207675350212
412.85,0.4148760937076428
412.88,0.3494566681324278
412.9,0.2854469290800112
412.93,0.2287692760090763
412.95,0.1788115034691778
412.98,0.1342359995805969
413.0,0.099199113141873
413.02,0.0700738120066414
413.05,0.049392309758918
413.08,0.0325628169871086
413.1,0.0215731470216414
413.12,0.0126696148750599
413.15,0.007067934855546
413.18,0.0044066613563054
413.2,0.0026406274129811
413.23,0.0011917312487922
413.25,0.0004536710004857
413.27,0.0002757294617023
413.3,0.0001704266477188
413.33,6.419076445984175e-05
413.35,4.665565471894971e-05
413.38,1.558041287454664e-05
413.4,6.89785001501667e-06
413.43,1.3535379644748732e-05
413.45,1.620384974976107e-05
413.48,1.605425239281296e-05
413.5,1.706375894584886e-05
413.52,1.7167082588949843e-05
413.55,1.7453050328853387e-05
413.58,1.7496226858594074e-05
413.6,1.755974588735082e-05
413.62,1.756704982590596e-05
413.65,1.75741354537017e-05
413.68,1.7581463234662675e-05
413.7,1.7583639890002087e-05
413.73,1.758396751587206e-05
413.75,1.758417573501613e-05
413.77,1.7584336535501462e-05
413.8,1.758437949216702e-05
413.83,1.7584387172432105e-05
413.85,1.75843919682163e-05
413.88,1.7584392699835594e-05
413.9,1.7584393041886306e-05
413.93,1.7584393238752965e-05
413.95,1.7584393280343997e-05
415.05,1.7584393280037866e-05
415.08,1.7584393270020312e-05
415.1,1.7584393189258058e-05
415.12,1.7584393043673772e-05
415.15,1.758439272637779e-05
415.18,1.7584390630582578e-05
415.2,1.7584382078364132e-05
415.23,1.7584369603332596e-05
415.25,1.758430322004554e-05
415.27,1.758421346842735e-05
415.3,1.758373473063648e-05
415.33,1.758316258693655e-05
415.35,1.758013469596272e-05
415.38,1.7577045134168458e-05
415.4,1.75735996885673e-05
415.43,1.7543548904131008e-05
415.45,1.745209428223483e-05
415.48,1.7399850342698962e-05
415.5,1.740875354050915e-05
415.52,1.6945311965601848e-05
415.55,1.5637430115760316e-05
415.58,1.5887621572740763e-05
415.6,1.3550081570096168e-05
415.62,1.820652098973963e-05
415.65,3.3309789519482495e-05
415.68,3.975462747259167e-05
415.7,4.408428383346284e-05
415.73,0.0001478114502563
415.75,0.0002689118543461
415.77,0.0006747610776564
415.8,0.0011903058514174
415.83,0.0024331089526389
415.85,0.0040621716347561
415.88,0.0072996350095619
415.9,0.0123914366359367
415.93,0.0185824176956141
415.95,0.0270663635795078
415.98,0.0407651465885597
416.0,0.0595626750655236
416.02,0.0818659307507721
416.05,0.1090747298465242
416.08,0.144141765735699
416.1,0.1836226486248595
416.12,0.2290526926782312
416.15,0.2766099446703817
416.18,0.3223581112863125
416.2,0.3657415135967621
416.23,0.4042237810032019
416.25,0.4341818016754445
416.27,0.4501043507504061
416.3,0.4552556462074699
416.33,0.4477641438972057
416.35,0.4283821007162897
416.38,0.3983567689549638
416.4,0.3593914890081802
416.43,0.3162810294655514
416.45,0.2715617609256057
416.48,0.2257893623176049
416.5,0.1829001269565473
416.52,0.1437543201482072
416.55,0.1108838743973276
416.58,0.0817994924868002
416.6,0.0593589813544059
416.62,0.0402353713333605
416.65,0.0263171985548354
416.68,0.0177167024106709
416.7,0.0115128730694838
416.73,0.0065313672457442
416.75,0.0035150049693754
416.77,0.0022558837369861
416.8,0.0015070012709514
416.83,0.0010795891695549
416.85,0.0011278312490054
416.88,0.0015480299686357
416.9,0.0025135639002777
416.93,0.0038135555383395
416.95,0.0056290125378708
416.98,0.0087031351254959
417.0,0.0130748172757882
417.02,0.0183205450130596
417.05,0.0248953191090431
417.08,0.0337160512192293
417.1,0.0439022841904835
417.12,0.0560928993756323
417.15,0.0693602404941303
417.18,0.0825800792154753
417.2,0.0956899271791647
417.23,0.108120036698636
417.25,0.1186960289836087
417.27,0.125839910201285
417.3,0.1301818452882963
417.33,0.1310073307324368
417.35,0.1282497951269209
417.38,0.122108065073348
417.4,0.1128006871033721
417.43,0.10156458754236
417.45,0.0892287875158348
417.48,0.0759945101960404
417.5,0.0629678025226031
417.52,0.0507385463342267
417.55,0.0400411278032771
417.58,0.030321598857069
417.6,0.022522370958621
417.62,0.0157512363618183
417.65,0.0106506712754542
417.68,0.0073287802673255
417.7,0.0048741336153857
417.73,0.0028845963813948
417.75,0.001628601934014
417.77,0.0010258243557846
417.8,0.0006370797530355
417.83,0.0003331796093776
417.85,0.0002008209951435
417.88,8.593552302627447e-05
417.9,3.2937947677995526e-05
417.93,2.693000544095711e-05
417.95,2.3122556793634887e-05
417.98,1.730526086373017e-05
418.0,1.781558978256313e-05
418.02,1.6840383040308745e-05
418.05,1.7401761390321185e-05
418.08,1.730192245413695e-05
418.1,1.751155545018087e-05
418.12,1.7489710408743132e-05
418.15,1.7511541510276228e-05
418.18,1.7561135988950383e-05
418.2,1.7577802958150807e-05
418.23,1.757950018446503e-05
418.25,1.7581386160262854e-05
418.27,1.7583486696013936e-05
418.3,1.758413988109598e-05
418.33,1.7584261720458958e-05
418.35,1.758436060137648e-05
418.38,1.758437575798004e-05
418.4,1.7584384674748516e-05
418.43,1.7584391121627056e-05
418.45,1.7584392776525893e-05
418.48,1.7584393068103975e-05
418.5,1.758439324292932e-05
418.52,1.758439327240277e-05
418.55,1.758439328865713e-05
418.58,1.7584393291120502e-05
421.43,1.758439329131611e-05
421.45,1.758439328603373e-05
421.48,1.7584393276150764e-05
421.5,1.7584393253891443e-05
421.52,1.7584393105241677e-05
421.55,1.7584392475660617e-05
421.58,1.7584391503595723e-05
421.6,1.7584386202024577e-05
421.62,1.758437852691116e-05
421.65,1.7584364971901496e-05
421.68,1.7584275809766407e-05
421.7,1.7583960345424383e-05
421.73,1.758361138779837e-05
421.75,1.7581846990081702e-05
421.77,1.7580156617966918e-05
421.8,1.757088246317647e-05
421.83,1.756394785306675e-05
421.85,1.752176194216264e-05
421.88,1.7501843499131864e-05
421.9,1.7517870504069786e-05
421.93,1.7285062465743374e-05
421.95,1.6622262728388376e-05
421.98,1.6822492167052534e-05
422.0,1.833196551541725e-05
422.02,1.7762826113989113e-05
422.05,1.5187656811967343e-05
422.08,2.7857340107639857e-05
422.1,3.8352651398063725e-05
422.12,9.845435299925118e-05
422.15,0.000225710706795
422.18,0.0003631864934624
422.2,0.0005717647853943
422.23,0.001162383110968
422.25,0.0019614904784075
422.27,0.0035783498819787
422.3,0.0057098027095269
422.33,0.0094030269535948
422.35,0.0141326546819854
422.38,0.0214052761241972
422.4,0.0311891367191936
422.43,0.0424992518496345
422.45,0.0562956167061173
422.48,0.0741738266013942
422.5,0.0950144788922728
422.52,0.1176092433710121
422.55,0.1414217172290263
422.58,0.1664906894060023
422.6,0.1904126954186476
422.62,0.2124333332916226
422.65,0.2299530043835986
422.68,0.2418460601740621
422.7,0.2482068841241892
422.73,0.2478953299404329
422.75,0.2410335931383598
422.77,0.2264007541175231
422.8,0.2075526136190271
422.83,0.184724982359352
422.85,0.1600999231164678
422.88,0.1342904845786393
422.9,0.1093965952015092
422.93,0.0876296831502627
422.95,0.0685499481243829
422.98,0.0515446668958156
423.0,0.0382190358535363
423.02,0.0271308254123805
423.05,0.0192425693525913
423.08,0.0127916506192499
423.1,0.0085544992223919
423.12,0.0051017708424774
423.15,0.0029058813312545
423.18,0.0018376368910029
423.2,0.0011201185521009
423.23,0.000531415796567
423.25,0.000223977944797
423.27,0.0001410340520298
423.3,9.10238330563316e-05
423.33,4.331666077673548e-05
423.35,3.313051124164448e-05
423.38,1.8519162950282753e-05
423.4,1.3895767062047813e-05
423.43,1.623889980254469e-05
423.45,1.716403011242498e-05
423.48,1.697827841915623e-05
423.5,1.7380785117281036e-05
423.52,1.7402225174080516e-05
423.55,1.7527195801878976e-05
423.58,1.7543022756189034e-05
423.6,1.7572775891196514e-05
423.62,1.7575521305938887e-05
423.65,1.757887989852397e-05
423.68,1.7582773875702055e-05
423.7,1.7583965415833215e-05
423.73,1.7584136919089493e-05
423.75,1.758425621554548e-05
423.77,1.758435605937456e-05
423.8,1.7584383865048326e-05
423.83,1.758438892399973e-05
423.85,1.7584392307007165e-05
423.88,1.7584392827233774e-05
423.9,1.7584393086647393e-05
423.93,1.7584393246247858e-05
423.95,1.758439328297574e-05
423.98,1.7584393288917292e-05
424.15,1.7584393291889835e-05
424.18,1.7584393291001162e-05
424.2,1.7584393284876904e-05
424.23,1.7584393273918947e-05
424.25,1.7584393210498778e-05
424.27,1.758439310659828e-05
424.3,1.7584392519163355e-05
424.33,1.758439163763085e-05
424.35,1.7584386807232894e-05
424.38,1.7584380255516676e-05
424.4,1.7584369479345858e-05
424.43,1.7584296839982705e-05
424.45,1.7584048613645156e-05
424.48,1.7583799235303913e-05
424.5,1.7583521600009056e-05
424.52,1.7581227992692352e-05
424.55,1.757416588392963e-05
424.58,1.756985780420494e-05
424.6,1.7544284077680382e-05
424.62,1.7537588964523464e-05
424.65,1.7561018620542313e-05
424.68,1.744905214661642e-05
424.7,1.7125603046029043e-05
424.73,1.7368980292274398e-05
424.75,1.7056563165562463e-05
424.77,1.9000774384418424e-05
424.8,2.0021667766515237e-05
424.83,2.9115200329648057e-05
424.85,3.822968217481399e-05
424.88,7.254695685538455e-05
424.9,0.0001402540659232
424.93,0.0002168312231993
424.95,0.0003321457998111
424.98,0.0006180295757142
425.0,0.0011052922417783
425.02,0.0017101918501704
425.05,0.0025646049375425
425.08,0.0040545984715202
425.1,0.0059790982518745
425.12,0.008848916150804
425.15,0.0126088884377901
425.18,0.0169006346015436
425.2,0.0220036199283855
425.23,0.0283339334631004
425.25,0.035268904730096
425.27,0.0427505988530939
425.3,0.050384312481898
425.33,0.0579678164763398
425.35,0.0647806602785406
425.38,0.0705694139396907
425.4,0.0745908298934986
425.43,0.0766423239522933
425.45,0.0768442572195427
425.48,0.0749378000656648
425.5,0.0708700504127341
425.52,0.0656726727485287
425.55,0.0592525262781328
425.58,0.0518630409503559
425.6,0.0442246673230768
425.62,0.0364389785694044
425.65,0.0291476047015833
425.68,0.0229397381744159
425.7,0.0175602743983708
425.73,0.0127743583264962
425.75,0.0090428120302075
425.77,0.0064445980741399
425.8,0.0044853997972045
425.83,0.0029031161029531
425.85,0.0018988211916148
425.88,0.0010864480955642
425.9,0.0005876833105976
425.93,0.0003647147658511
425.95,0.0002245152796053
425.98,0.0001153493919781
426.0,7.454908303827162e-05
426.02,4.053621721046231e-05
426.05,3.143624793197562e-05
426.08,2.2067331649440015e-05
426.1,2.0481158261858397e-05
426.12,1.768078123404514e-05
426.15,1.6848873779434856e-05
426.18,1.737855832591453e-05
426.2,1.755434583292031e-05
426.23,1.7470787284874886e-05
426.25,1.747935059837344e-05
426.27,1.754783135609793e-05
426.3,1.7572941775218544e-05
426.33,1.7576369118190195e-05
426.35,1.758213306085077e-05
426.38,1.7582711072716207e-05
426.4,1.758335694750627e-05
426.43,1.758407835163372e-05
426.45,1.758430294122669e-05
426.48,1.758434518140819e-05
426.5,1.7584380292289487e-05
426.52,1.7584386846648546e-05
426.55,1.758439167518743e-05
426.58,1.7584392550358945e-05
426.6,1.7584393126930972e-05
426.62,1.7584393215469804e-05
426.65,1.7584393259036673e-05
426.68,1.7584393285516637e-05
426.7,1.7584393291454735e-05
426.73,1.758439329207322e-05
433.77,1.7584393291968403e-05
433.8,1.7584393289278107e-05
433.83,1.758439328433951e-05
433.85,1.7584393255453714e-05
433.88,1.758439320941929e-05
433.9,1.7584393119612546e-05
433.93,1.7584392532189756e-05
433.95,1.758439031274677e-05
433.98,1.7584387480668916e-05
434.0,1.7584383074687995e-05
434.02,1.758435331285804e-05
434.05,1.758425245771895e-05
434.08,1.758415404246195e-05
434.1,1.758364907352943e-05
434.12,1.7583241455368924e-05
434.15,1.758296917903266e-05
434.18,1.757893417798797e-05
434.2,1.7566989560586635e-05
434.23,1.756310094810975e-05
434.25,1.752850422264063e-05
434.27,1.7537876137891073e-05
434.3,1.745020029479306e-05
434.33,1.7574169146890154e-05
434.35,1.7452992431257096e-05
434.38,1.8216447466999018e-05
434.4,2.026731847660069e-05
434.43,2.164562323824035e-05
434.45,2.3294382032642094e-05
434.48,3.5667930117925086e-05
434.5,6.218050620977442e-05
434.52,9.211561004507248e-05
434.55,0.0001374557679056
434.58,0.000256569056925
434.6,0.0004169794891281
434.62,0.0007315164565432
434.65,0.0012211007486411
434.68,0.0018138203045113
