Wavelength (nm),Normalized
382.03,0.0004726721215569
382.08,0.0004726721215566
382.12,0.0004726721215563
382.17,0.0004726721215562
382.22,0.0004726721215562
382.26,0.0004726721215563
382.31,0.0004726721215523
382.36,0.0004726721215226
382.41,0.0004726721211335
382.45,0.0004726721169912
382.5,0.0004726720945951
382.55,0.0004726718924906
382.59,0.0004726704342028
382.64,0.0004726613826496
382.69,0.0004726312719761
382.73,0.0004724675346406
382.78,0.0004717827930954
382.83,0.0004702766559614
382.88,0.0004647398193087
382.92,0.0004499906896602
382.97,0.0004330374105491
383.02,0.0003958403768253
383.06,0.000358109780752
383.11,0.0003960065517984
383.16,0.0007470490007458
383.2,0.0014973591333222
383.25,0.0029229745871942
383.3,0.0052077460155925
383.35,0.0082308608772408
383.39,0.0116694555157415
383.44,0.0148575212806124
383.49,0.0172503223546488
383.53,0.0182829980157108
383.58,0.0177082123109381
383.63,0.0156769614278898
383.67,0.0125734662001684
383.72,0.0091259704181575
383.77,0.0059625377202202
383.82,0.0034615617011534
383.86,0.0017966302789197
383.91,0.0008264021265906
383.96,0.0004637450197816
384.0,0.0003819728758944
384.05,0.000395796026624
384.1,0.0004131641198273
384.15,0.0004468786768737
384.19,0.000463133848662
384.24,0.0004684697317317
384.29,0.0004715048912227
384.33,0.0004723958784626
384.38,0.0004726153970247
384.43,0.0004726568838479
384.47,0.0004726696820309
384.52,0.0004726717830938
384.57,0.0004726720558719
384.62,0.0004726721143856
384.66,0.0004726721208789
384.71,0.0004726721214606
384.76,0.0004726721215494
384.8,0.0004726721215561
384.85,0.0004726721215565
384.9,0.0004726721215565
384.94,0.0004726721215565
384.99,0.0004726721215565
385.04,0.0004726721215565
387.39,0.0004726721215565
387.44,0.0004726721215565
387.48,0.0004726721215565
387.53,0.0004726721215565
387.58,0.0004726721215565
387.62,0.000472672121556
387.67,0.000472672121549
387.72,0.0004726721214979
387.77,0.0004726721208561
387.81,0.0004726721142855
387.86,0.0004726720558337
387.91,0.0004726717843293
387.95,0.0004726696940001
388.0,0.0004726569140082
388.05,0.000472615208273
388.1,0.0004723919812047
388.14,0.0004714715415915
388.19,0.000469468973914
388.24,0.0004621469714787
388.28,0.0004426678542389
388.33,0.00040176600239
388.38,0.0003747905476086
388.42,0.0003392146818406
388.47,0.0003921383424291
388.52,0.0008547539403715
388.57,0.0018392668423226
388.61,0.0037386294714588
388.66,0.006860698073172
388.71,0.0110732245167573
388.75,0.0159949382070373
388.8,0.0208329638825633
388.85,0.0245158463773428
388.89,0.0263786984100555
388.94,0.0259765171142649
388.99,0.0234013970962617
389.04,0.0191324682503742
389.08,0.0141739075529222
389.13,0.0094623756226505
389.18,0.0056037760737143
389.22,0.0029606084762257
389.27,0.0014094197796383
389.32,0.0005934603459465
389.36,0.0003778067181957
389.41,0.0003588383974647
389.46,0.0003711676913285
389.51,0.000425141006672
389.55,0.0004537460858021
389.6,0.0004637635790502
389.65,0.0004700235330993
389.69,0.0004720004505438
389.74,0.0004725237320424
389.79,0.0004726296082313
389.84,0.0004726647672846
389.88,0.0004726710139486
389.93,0.0004726718907019
389.98,0.0004726720938818
390.02,0.0004726721186716
390.07,0.000472672121295
390.12,0.0004726721215207
390.16,0.0004726721215539
390.21,0.0004726721215564
390.26,0.0004726721215565
390.31,0.0004726721215565
390.35,0.0004726721215565
390.4,0.0004726721215565
390.45,0.0004726721215565
395.48,0.0004726721215565
395.53,0.0004726721215565
395.57,0.0004726721215565
395.62,0.0004726721215565
395.67,0.0004726721215564
395.71,0.000472672121555
395.76,0.0004726721215361
395.81,0.0004726721214077
395.85,0.0004726721199064
395.9,0.0004726721055695
395.95,0.0004726720346507
396.0,0.00047267144764
396.04,0.000472667552524
396.09,0.0004726537388592
396.14,0.0004725729223815
396.18,0.0004722034049798
396.23,0.0004707573261031
396.28,0.0004677290513819
396.32,0.0004568977599786
396.37,0.0004286350232702
396.42,0.0003973135471387
396.47,0.000327601505191
396.51,0.0002541988381464
396.56,0.0004378840776022
396.61,0.0009394187048898
396.65,0.0022228625106374
396.7,0.004870186064488
396.75,0.0093932153973977
396.79,0.0156306765225609
396.84,0.0231206152417691
396.89,0.0306121979417988
396.94,0.0369364552577067
396.98,0.0407284050747457
397.03,0.0410537673217609
397.08,0.0378423588395281
397.12,0.0318680250477665
397.17,0.0244373307358339
397.22,0.0169885073773069
397.26,0.010517074743237
397.31,0.0057478522108253
397.36,0.0026382090266081
397.41,0.0011098213698449
397.45,0.0004721259640863
397.5,0.0002271476887006
397.55,0.0002960112293622
397.59,0.0003810881684809
397.64,0.0004327960278708
397.69,0.0004523943568731
397.74,0.0004662201926175
397.78,0.0004708729891823
397.83,0.0004720409988315
397.88,0.0004725332733341
397.92,0.0004726456449397
397.97,0.0004726677014918
398.02,0.0004726711143313
398.06,0.0004726719874497
398.11,0.0004726721059466
398.16,0.0004726721189181
398.21,0.0004726721213105
398.25,0.0004726721215365
398.3,0.000472672121554
398.35,0.0004726721215564
398.39,0.0004726721215565
398.44,0.0004726721215565
398.49,0.0004726721215565
398.53,0.0004726721215565
408.6,0.0004726721215565
408.64,0.0004726721215565
408.69,0.0004726721215565
408.74,0.0004726721215565
408.79,0.0004726721215564
408.83,0.0004726721215546
408.88,0.0004726721215317
408.93,0.0004726721213845
408.97,0.0004726721197539
409.02,0.0004726721049101
409.07,0.0004726720341001
409.12,0.0004726714658834
409.16,0.0004726677856567
409.21,0.0004726549491034
409.26,0.0004725804541741
409.3,0.0004722398374583
409.35,0.0004708950562298
409.4,0.0004680273457797
409.44,0.0004574763607323
409.49,0.0004286881557294
409.54,0.0003934353912646
409.59,0.0003069602231757
409.63,0.0001850426250327
409.68,0.0003040009059146
409.73,0.0006854236261163
409.77,0.0018750381112664
409.82,0.0046893698977595
409.87,0.0101971389906592
409.91,0.0184466323765495
409.96,0.0294156225974599
410.01,0.0418829401070465
410.06,0.0542155252985286
410.1,0.0641259010543015
410.15,0.0693454553044042
410.2,0.068918619953487
410.24,0.0629435586464686
410.29,0.0527473022064909
410.34,0.0404793221801178
410.38,0.0280223256568031
410.43,0.0174070948775745
410.48,0.0094470563915908
410.53,0.0044873826071103
410.57,0.0017820432472741
410.62,0.0004257369409149
410.67,0.0001764875576451
410.71,0.0002361050311804
410.76,0.0003348604767677
410.81,0.0003836803114643
410.86,0.000438065800986
410.9,0.0004608308686615
410.95,0.0004676846146527
411.0,0.0004713285703862
411.04,0.0004723578214359
411.09,0.0004726071205125
411.14,0.0004726542940603
411.18,0.0004726691529087
411.23,0.0004726716857374
411.28,0.0004726720316933
411.33,0.0004726721108517
411.37,0.000472672120433
411.42,0.0004726721213809
411.47,0.0004726721215415
411.51,0.0004726721215554
411.56,0.0004726721215565
411.61,0.0004726721215565
411.65,0.0004726721215565
411.7,0.0004726721215565
411.75,0.0004726721215565
432.39,0.0004726721215565
432.44,0.0004726721215565
432.49,0.0004726721215565
432.53,0.0004726721215565
432.58,0.0004726721215564
432.63,0.0004726721215555
432.67,0.0004726721215447
432.72,0.0004726721214307
432.77,0.0004726721208037
432.82,0.0004726721148696
432.86,0.0004726720685197
432.91,0.0004726718740053
432.96,0.0004726704924825
433.0,0.0004726625373006
433.05,0.000472622055077
433.1,0.0004725078648277
433.14,0.0004719603352846
433.19,0.0004699017804749
433.24,0.000465786106014
433.29,0.0004511364030505
433.33,0.0004123546008848
433.38,0.000328072462696
433.43,0.0002634014194455
433.47,0.0001345111755294
433.52,7.624499341448998e-05
433.57,0.0008252777229095
433.62,0.0025053387402432
433.66,0.0062848598472987
433.71,0.0140655904878429
433.76,0.0260895931247902
433.8,0.0430910216199768
433.85,0.0644315140341193
433.9,0.0874573945416222
433.94,0.1090953501806913
433.99,0.1254507643622739
434.04,0.1329291573125267
434.09,0.1302503624103886
434.13,0.1181187230426139
434.18,0.0990148795475687
434.23,0.0759840263657987
434.27,0.0533500683969579
434.32,0.0340035606605539
434.37,0.0192399084502528
434.41,0.0097366607545853
434.46,0.0042272657160013
434.51,0.0012144076993497
434.56,0.0003376590199005
434.6,0.0001539967461665
434.65,0.0001189218291429
434.7,0.0002862941998148
434.74,0.0003919009704053
434.79,0.0004416374383789
434.84,0.0004580302890424
434.88,0.0004682590304155
434.93,0.0004714792630411
434.98,0.0004722568063222
435.03,0.0004725806676704
435.07,0.0004726540619997
435.12,0.0004726672979096
435.17,0.0004726713284529
435.21,0.000472672005477
435.26,0.0004726721063795
435.31,0.000472672118687
435.35,0.0004726721212447
435.4,0.0004726721215263
435.45,0.0004726721215521
435.5,0.0004726721215562
435.54,0.0004726721215565
435.59,0.0004726721215565
435.64,0.0004726721215565
435.68,0.0004726721215565
484.31,0.0004726721215565
484.35,0.0004726721215565
484.4,0.0004726721215565
484.45,0.0004726721215565
484.5,0.0004726721215564
484.54,0.0004726721215555
484.59,0.0004726721215467
484.64,0.0004726721215027
484.68,0.0004726721211171
484.73,0.0004726721182845
484.78,0.0004726721068311
484.83,0.0004726720268819
484.87,0.0004726715652806
484.92,0.0004726700795452
484.97,0.0004726618054695
485.01,0.000472624396625
485.06,0.0004724726781187
485.11,0.0004721272212604
485.15,0.0004707161279807
485.2,0.0004662011628994
485.25,0.0004587398862303
485.3,0.0004345252088942
485.34,0.0003767452928062
485.39,0.0003250843173486
485.44,0.0001947529446718
485.48,2.3185216531697323e-05
485.53,0.0
485.58,0.0011790593622923
485.62,0.0035970696093564
485.67,0.0088472762948498
485.72,0.02016682918978
485.77,0.0379303101163159
485.81,0.0644747994947424
485.86,0.1012535616624926
485.91,0.1458365904379248
485.95,0.1949424899185232
486.0,0.2428545063138086
486.05,0.28163389810036
486.09,0.3057192920012609
486.14,0.3110445792229824
486.19,0.2962021931165954
486.24,0.2634431880821458
486.28,0.2191547068134182
486.33,0.1701799297948948
486.38,0.1225872450769218
486.42,0.08190343218995
486.47,0.0503423087461285
486.52,0.0275571000159607
486.56,0.0139701254380083
486.61,0.0062302312584396
486.66,0.0018644409973142
486.71,0.0005548132782102
486.75,0.0001755934093747
486.8,2.5860041214493904e-05
486.85,0.0002177970049144
486.89,0.0003522241128539
486.94,0.0004210563459882
486.99,0.0004449015836101
487.04,0.0004630910890369
487.08,0.0004696228149873
487.13,0.0004714164565231
487.18,0.0004723318590869
487.22,0.0004725890984304
487.27,0.0004726535421366
487.32,0.0004726665040982
487.36,0.0004726710447319
487.41,0.0004726719326909
487.46,0.0004726720751228
487.51,0.0004726721145372
487.55,0.0004726721205876
487.6,0.0004726721213613
487.65,0.0004726721215331
487.69,0.000472672121554
487.74,0.0004726721215563
487.79,0.0004726721215565
487.83,0.0004726721215565
487.88,0.0004726721215565
487.93,0.0004726721215565
653.93,0.0004726721215565
653.97,0.0004726721215565
654.02,0.0004726721215565
654.07,0.0004726721215565
654.11,0.0004726721215565
654.16,0.0004726721215561
654.21,0.0004726721215549
654.26,0.0004726721215476
654.3,0.0004726721215103
654.35,0.0004726721213996
654.4,0.0004726721208048
654.44,0.0004726721181228
654.49,0.0004726721068247
654.54,0.0004726720790802
654.58,0.0004726719521603
654.63,0.0004726714730968
654.68,0.0004726704583431
654.73,0.0004726663110575
654.77,0.0004726526319545
654.82,0.0004726283342747
654.87,0.0004725390583468
654.91,0.000472282180949
654.96,0.0004716141276925
655.01,0.0004707793832751
655.05,0.0004680599248649
655.1,0.0004617066488436
655.15,0.0004572268332607
655.2,0.0004417503124973
655.24,0.0004129615455857
655.29,0.0004354406650002
655.34,0.000451417350353
655.38,0.0005271653167715
655.43,0.0008244365647912
655.48,0.0021455592286122
655.52,0.0043309440623394
655.57,0.0083765155414289
655.62,0.0171176752785636
655.67,0.0303665987477553
655.71,0.050992061334085
655.76,0.0824988632615834
655.81,0.1307323101534681
655.85,0.1939048585547786
655.9,0.2744367582489304
655.95,0.3742342576102782
656.0,0.4861825063435809
656.04,0.605988825001841
656.09,0.7256177906017677
656.14,0.8334906527419987
656.18,0.920837741120549
656.23,0.9790248186799774
656.28,1.0
656.32,0.9815032357407704
656.37,0.9273978242606892
656.42,0.8419068615101833
656.47,0.7341403546330038
656.51,0.6156221792405336
656.56,0.4949401833924992
656.61,0.3829712293260704
656.65,0.2850089239718471
656.7,0.2031962353652016
656.75,0.1369018205616359
656.79,0.0896143471626468
656.84,0.0558233396733215
656.89,0.0317344473631296
656.94,0.0179586393550608
656.98,0.0095468217015135
657.03,0.0042021884574429
657.08,0.0020924178031334
657.12,0.0011389678294195
657.17,0.0006939846783069
657.22,0.0004153594879184
657.26,0.0004194804896049
657.31,0.0004339340782071
657.36,0.0004318247034998
657.41,0.0004528821353414
657.45,0.0004633012533856
657.5,0.0004665210814709
657.55,0.0004701418084293
657.59,0.0004717152967697
657.64,0.0004723225816894
657.69,0.0004724991921986
657.73,0.0004726153456109
657.78,0.0004726541857482
657.83,0.0004726644409309
657.88,0.0004726699162067
657.92,0.0004726715120039
657.97,0.0004726718908419
658.02,0.0004726720624272
658.06,0.0004726721073567
658.11,0.000472672118298
658.16,0.0004726721205144
658.21,0.0004726721213366
658.25,0.0004726721215122
658.3,0.0004726721215439
658.35,0.0004726721215541
658.39,0.0004726721215561
658.44,0.0004726721215565
658.49,0.0004726721215565
658.53,0.0004726721215565
658.58,0.0004726721215565
658.63,0.0004726721215565
919.76,0.0004726721215565
919.8,0.0004726721215565
919.85,0.0004726721215565
919.9,0.0004726721215565
919.94,0.0004726721215565
919.99,0.0004726721215565
920.04,0.0004726721215565
920.09,0.0004726721215565
920.13,0.0004726721215565
920.18,0.0004726721215565
920.23,0.0004726721215564
920.27,0.0004726721215562
920.32,0.0004726721215556
920.37,0.0004726721215546
920.42,0.0004726721215508
920.46,0.0004726721215398
920.51,0.0004726721215242
920.56,0.0004726721214673
920.6,0.0004726721213115
920.65,0.0004726721209218
920.7,0.0004726721204915
920.74,0.0004726721189361
920.79,0.0004726721150254
920.84,0.0004726721118967
920.89,0.0004726720991169
920.93,0.0004726720687928
920.98,0.000472672059409
921.03,0.0004726719904237
921.07,0.0004726718341268
921.12,0.0004726715630023
921.17,0.0004726719742322
921.21,0.0004726721416369
921.26,0.00047267241337
921.31,0.0004726784805507
921.36,0.0004726859837918
921.4,0.0004726996019756
921.45,0.0004727518557295
921.5,0.0004728262300272
921.54,0.0004729551777731
921.59,0.000473197638808
921.64,0.0004737967479614
921.68,0.0004746772805518
921.73,0.0004760944183824
921.78,0.0004788693352478
921.83,0.0004828010539836
921.87,0.0004887032178093
921.92,0.0004977131559649
921.97,0.0005126971031893
922.01,0.00053297155607
922.06,0.0005609505708937
922.11,0.0006020810532567
922.16,0.0006542003594
922.2,0.0007210593509345
922.25,0.0008099487037712
922.3,0.0009156394727166
922.34,0.0010415617847198
922.39,0.001189955662651
922.44,0.0013651591000879
922.48,0.0015548437117404
922.53,0.0017577967081781
922.58,0.0019715515524494
922.63,0.0021796441104021
922.67,0.0023773840017918
922.72,0.0025562605426965
922.77,0.0027014303852865
922.81,0.0028093498627123
922.86,0.0028748092642426
922.91,0.0028912015520202
922.95,0.0028571667364047
923.0,0.0027779563913691
923.05,0.0026538952398973
923.1,0.0024954519210467
923.14,0.0023119534519552
923.19,0.0021081315103896
923.24,0.0019005062367309
923.28,0.0016955189130276
923.33,0.001498276854784
923.38,0.001310854894781
923.42,0.0011467570965407
923.47,0.0010028838264368
923.52,0.000877192497699
923.57,0.0007776720877411
923.61,0.0006972616819634
923.66,0.0006320505181428
923.71,0.000585743753413
923.75,0.0005515987130132
923.8,0.0005263855799491
923.85,0.0005073103901459
923.89,0.0004953517613737
923.94,0.0004870824218695
923.99,0.0004811201571372
924.04,0.0004778171920479
924.08,0.0004756859288618
924.13,0.0004742196416618
924.18,0.0004735447226466
924.22,0.0004731643963391
924.27,0.0004729372172656
924.32,0.0004727811320014
924.37,0.0004727281008289
924.41,0.0004726984029807
924.46,0.0004726772028308
924.51,0.0004726739967096
924.55,0.0004726729740874
924.6,0.000472672399136
924.65,0.0004726715906012
924.69,0.0004726718650297
924.74,0.0004726719873292
924.79,0.0004726719713069
924.84,0.0004726720537122
924.88,0.0004726720897826
924.93,0.0004726720974162
924.98,0.0004726721111214
925.02,0.0004726721173441
925.07,0.0004726721198509
925.12,0.0004726721205268
925.16,0.0004726721211674
925.21,0.0004726721214099
925.26,0.0004726721214768
925.31,0.0004726721215281
925.35,0.0004726721215464
925.4,0.0004726721215514
925.45,0.0004726721215548
925.49,0.000472672121556
925.54,0.0004726721215563
925.59,0.0004726721215564
925.63,0.0004726721215565
925.68,0.0004726721215565
925.73,0.0004726721215565
925.78,0.0004726721215565
925.82,0.0004726721215565
925.87,0.0004726721215565
925.92,0.0004726721215565
925.96,0.0004726721215565
926.01,0.0004726721215565
951.36,0.0004726721215565
951.4,0.0004726721215565
951.45,0.0004726721215565
951.5,0.0004726721215565
951.55,0.0004726721215565
951.59,0.0004726721215565
951.64,0.0004726721215565
951.69,0.0004726721215565
951.73,0.0004726721215565
951.78,0.0004726721215565
951.83,0.0004726721215564
951.87,0.0004726721215563
951.92,0.0004726721215557
951.97,0.0004726721215548
952.02,0.0004726721215516
952.06,0.0004726721215425
952.11,0.0004726721215301
952.16,0.000472672121485
952.2,0.0004726721213633
952.25,0.0004726721210643
952.3,0.0004726721207555
952.34,0.0004726721196114
952.39,0.0004726721167576
952.44,0.0004726721146935
952.49,0.0004726721057168
952.53,0.0004726720843827
952.58,0.000472672041354
952.63,0.0004726720429534
952.67,0.0004726719736623
952.72,0.0004726718148614
952.77,0.0004726721492684
952.82,0.0004726722965716
952.86,0.0004726724995228
952.91,0.0004726768880249
952.96,0.0004726821744268
953.0,0.0004726915851128
953.05,0.0004727119954571
953.1,0.0004727858928759
953.14,0.0004728931541217
953.19,0.0004730758768536
953.24,0.0004735205424381
953.29,0.0004741641510862
953.33,0.0004751990587935
953.38,0.0004772860832816
953.43,0.000480250813177
953.47,0.0004847531431734
953.52,0.0004917527954444
953.57,0.0005038737574226
953.61,0.0005204269358215
953.66,0.0005437370168264
953.71,0.0005792855393804
953.76,0.0006251808733008
953.8,0.0006855724465467
953.85,0.0007692281587182
953.9,0.0008713899129484
953.94,0.0009972497695205
953.99,0.001151426884596
954.04,0.001343013218867
954.08,0.0015592602837545
954.13,0.0018024274497348
954.18,0.0020754725245599
954.23,0.0023588131282801
954.27,0.0026489961091631
954.32,0.0029388815215974
954.37,0.0032092179315316
954.41,0.0034511778521324
954.46,0.0036557046801755
954.51,0.0038110563420443
954.56,0.0039039078810053
954.6,0.0039356334296858
954.65,0.0038996819564574
954.7,0.0037992214904324
954.74,0.003642734995278
954.79,0.003437306410377
954.84,0.0031870954710974
954.88,0.0029124963648488
954.93,0.002624344882634
954.98,0.0023279559590081
955.03,0.0020457411370617
955.07,0.0017809499095127
955.12,0.0015347052295377
955.17,0.0013244208480149
955.21,0.0011440941417842
955.26,0.0009910198402714
955.31,0.000860678919664
955.35,0.0007609503249358
955.4,0.0006819741311948
955.45,0.0006187183201998
955.5,0.0005746055683744
955.54,0.0005419926773684
955.59,0.0005173948773874
955.64,0.0005021271550867
955.68,0.0004918452396653
955.73,0.0004848143749533
955.78,0.0004797601488281
955.82,0.0004770174666589
955.87,0.000475248065941
955.92,0.0004740128652503
955.97,0.0004734367639082
956.01,0.0004730873813477
956.06,0.0004728491572632
956.11,0.0004727647037621
956.15,0.000472721699317
956.2,0.0004726971737843
956.25,0.0004726791332428
956.29,0.0004726756452263
956.34,0.0004726736688415
956.39,0.0004726718009867
956.44,0.000472671939664
956.48,0.0004726719889856
956.53,0.0004726718880006
956.58,0.0004726720066512
956.62,0.000472672070654
956.67,0.0004726720982339
956.72,0.0004726721029002
956.77,0.0004726721136898
956.81,0.0004726721181462
956.86,0.0004726721192811
956.91,0.0004726721206254
956.95,0.0004726721211984
957.0,0.0004726721214187
957.05,0.000472672121479
957.09,0.0004726721215284
957.14,0.0004726721215464
957.19,0.0004726721215513
