Wavelength (nm),Normalized
244.82,0.0015061391782338
244.84,0.0015061372146096
244.87,0.0015061358839868
244.89,0.0015061351863655
244.92,0.0015061351217457
244.94,0.0015061356901274
244.97,0.0015061325509535
244.99,0.0015061089344541
245.02,0.0015060555720662
245.04,0.0015057178314501
245.07,0.0015050983680964
245.09,0.001501776826997
245.12,0.0014970560101637
245.14,0.0014752673197382
245.17,0.001454298960136
245.19,0.0013665734604552
245.22,0.001341177301156
245.24,0.0011930885896831
245.27,0.0014890143954325
245.29,0.0019284877628887
245.32,0.0040589954874712
245.34,0.0076054794514352
245.37,0.0150179369142117
245.39,0.0259825956675664
245.42,0.0420402310501525
245.44,0.0620818249899522
245.47,0.0844150965238223
245.49,0.1066571977161916
245.52,0.1245771852564769
245.54,0.1358094924550228
245.57,0.1377136905808585
245.59,0.1300175656836997
245.62,0.114560952565702
245.64,0.09343656646284
245.67,0.0709368182727952
245.69,0.0495959286606902
245.72,0.0318171309591657
245.74,0.0189576929474642
245.77,0.0099916692533688
245.79,0.0053161407837682
245.82,0.0024602988582575
245.84,0.0016805068172884
245.87,0.0011985262031004
245.89,0.0013217041567351
245.92,0.0013298052273205
245.94,0.0014369879225289
245.97,0.0014626883049956
245.99,0.001492792125877
246.02,0.0014994754611767
246.04,0.0015044840218947
246.07,0.0015054473074929
246.09,0.0015059975421745
246.12,0.001506087416957
246.14,0.0015061288080664
246.17,0.0015061345050454
246.19,0.0015061366770756
246.22,0.0015061369278751
246.24,0.0015061370081779
246.27,0.0015061370159281
246.29,0.0015061370180323
246.32,0.0015061370182015
246.34,0.0015061370182407
246.37,0.0015061370182434
246.39,0.0015061370182439
246.42,0.0015061370182439
246.44,0.0015061370182439
246.47,0.0015061370182439
246.49,0.0015061370182439
246.52,0.001506137018244
246.54,0.001506137018244
246.57,0.001506137018244
246.59,0.001506137018244
246.62,0.001506137018244
246.64,0.001506137018244
246.67,0.0015061370182439
246.69,0.0015061370182431
246.72,0.001506137018239
246.74,0.0015061370181776
246.77,0.0015061370179122
246.79,0.0015061370146074
246.82,0.001506137002394
246.84,0.0015061368751969
246.87,0.0015061364756889
246.89,0.00150613298757
246.92,0.0015061237468975
246.94,0.001506055925236
246.97,0.001505906617336
246.99,0.0015049808930151
247.02,0.0015033267331436
247.04,0.0014945918461492
247.07,0.0014825676449362
247.09,0.0014275174713227
247.12,0.0013771598917781
247.14,0.0011653086418856
247.17,0.001119979578317
247.19,0.0007968336726518
247.22,0.0015870530955454
247.24,0.0027827167772172
247.27,0.0080802204826536
247.29,0.0168406531564141
247.32,0.0348129670980768
247.34,0.0611864723110949
247.37,0.0994933930589412
247.39,0.1470531643775786
247.42,0.1998339340411674
247.44,0.2522389077122294
247.47,0.2943937830234648
247.49,0.3207731096232669
247.52,0.3252478930791201
247.54,0.307192938713998
247.57,0.2708620860181607
247.59,0.2211347492089971
247.62,0.1680097890097287
247.64,0.1174532981195888
247.67,0.0751135860543609
247.69,0.0442716989003644
247.72,0.0226029376135608
247.74,0.0110521422999247
247.77,0.0039624486384796
247.79,0.0017496437001988
247.82,0.0007371473203076
247.84,0.0013069221107255
247.87,0.0033306827725974
247.89,0.0069707842574463
247.92,0.0146098906056329
247.94,0.0261009665626384
247.97,0.0436609976178626
247.99,0.0662214729102915
248.02,0.0925842366814666
248.04,0.1201320211891972
248.07,0.1441064765630168
248.09,0.1614605449824646
248.12,0.1682637850744913
248.14,0.163567493707733
248.17,0.1484850460447288
248.19,0.1250782384067255
248.22,0.0982863858110165
248.24,0.0712519705287666
248.27,0.0476388913110333
248.29,0.0294579341544091
248.32,0.0162513425647993
248.34,0.0086925562503059
248.37,0.0039224904895354
248.39,0.0022554024959505
248.42,0.0012546992448035
248.44,0.0012923821789432
248.47,0.0012400472527968
248.49,0.0013924827366267
248.52,0.0014277366255196
248.54,0.0014803064675792
248.57,0.0014923524377378
248.59,0.0015024730837816
248.62,0.0015045151274182
248.64,0.0015057843434087
248.67,0.0015060043613003
248.69,0.001506113338413
248.72,0.0015061293468573
248.74,0.0015061358913639
248.77,0.0015061367017442
248.79,0.001506136979955
248.82,0.001506137008888
248.84,0.0015061370173112
248.87,0.0015061370180452
248.89,0.0015061370182276
248.92,0.0015061370182409
248.94,0.0015061370182437
248.97,0.0015061370182439
248.99,0.0015061370182439
249.02,0.0015061370182439
249.04,0.0015061370182439
249.07,0.0015061370182439
249.09,0.0015061370182439
249.12,0.0015061370182439
249.14,0.001506137018244
249.17,0.001506137018244
249.19,0.001506137018244
249.22,0.001506137018244
249.24,0.001506137018244
249.27,0.001506137018244
249.29,0.001506137018244
249.32,0.001506137018244
249.34,0.001506137018244
249.37,0.001506137018244
249.39,0.001506137018244
249.42,0.001506137018244
249.44,0.0015061370182439
249.47,0.0015061370182433
249.49,0.0015061370182344
249.52,0.0015061370181927
249.54,0.0015061370176234
249.57,0.0015061370153372
249.59,0.0015061369891135
249.62,0.0015061368989801
249.64,0.0015061360299784
249.67,0.0015061334892284
249.69,0.0015061128469191
249.72,0.0015060620163418
249.74,0.0015057127733383
249.77,0.0015050004137884
249.79,0.0015008386612603
249.82,0.0014940097584103
249.84,0.0014597279469029
249.87,0.0014175107067637
249.89,0.0012307400713301
249.92,0.0010932635055538
249.94,0.0005011021845578
249.97,0.0005908333175159
249.99,0.0001752733546756
250.02,0.0034781101652633
250.04,0.0088300974854932
250.07,0.0260765048217358
250.09,0.0537453401907398
250.12,0.1049008513396097
250.14,0.1770581542362681
250.17,0.2752623428750329
250.19,0.3917133719493151
250.22,0.5134998753630621
250.24,0.6270133133058627
250.27,0.7097629705204126
250.29,0.750799922327569
250.32,0.7405728966868216
250.34,0.6805032809786411
250.37,0.5843227757657599
250.39,0.4645554540231429
250.42,0.3433998460379485
250.44,0.2336359211004126
250.47,0.1445560660256189
250.49,0.0825425099846741
250.52,0.0398170213208608
250.54,0.0184741759218936
250.57,0.005403063611774
250.59,0.0021291739914671
250.62,0.0
250.64,0.0006403990790892
250.67,0.0006913156593594
250.69,0.0011893611525623
250.72,0.0013065600285221
250.74,0.001444637598117
250.77,0.0014751615043394
250.79,0.0014983612633614
250.82,0.0015028491930212
250.84,0.0015054584451799
250.87,0.001505891354134
250.89,0.0015060952328084
250.92,0.0015061239232592
250.94,0.0015061351782758
250.97,0.0015061365167816
250.99,0.0015061369600135
251.02,0.001506137004398
251.04,0.001506137016914
251.07,0.0015061370179674
251.09,0.001506137018222
251.12,0.0015061370182399
251.14,0.0015061370182437
251.17,0.0015061370182439
251.19,0.0015061370182439
251.22,0.0015061370182439
251.24,0.0015061370182439
251.27,0.0015061370182439
251.29,0.0015061370182439
251.32,0.0015061370182439
251.34,0.0015061370182439
251.37,0.0015061370182439
251.39,0.0015061370182439
251.42,0.0015061370182439
251.44,0.0015061370182439
251.47,0.0015061370182439
251.49,0.0015061370182439
251.52,0.0015061370182439
251.54,0.0015061370182439
251.57,0.0015061370182439
251.59,0.0015061370182439
251.62,0.0015061370182439
251.64,0.0015061370182439
251.67,0.0015061370182439
251.69,0.0015061370182439
251.72,0.0015061370182439
251.74,0.0015061370182439
251.77,0.0015061370182439
251.79,0.0015061370182439
251.82,0.0015061370182439
251.84,0.0015061370182439
251.87,0.0015061370182439
251.89,0.0015061370182439
251.92,0.0015061370182439
251.94,0.0015061370182439
251.97,0.0015061370182439
251.99,0.0015061370182439
252.02,0.0015061370182439
252.04,0.0015061370182439
252.07,0.0015061370182439
252.09,0.0015061370182439
252.12,0.0015061370182439
252.14,0.0015061370182439
252.17,0.0015061370182439
252.19,0.0015061370182439
252.22,0.0015061370182439
252.24,0.0015061370182439
252.27,0.0015061370182439
252.29,0.0015061370182439
252.32,0.0015061370182439
252.34,0.0015061370182439
252.37,0.0015061370182439
252.39,0.0015061370182439
252.42,0.0015061370182439
252.44,0.0015061370182439
252.47,0.0015061370182439
252.49,0.0015061370182439
252.52,0.0015061370182439
252.54,0.0015061370182439
252.57,0.0015061370182439
252.59,0.0015061370182439
252.62,0.0015061370182439
252.64,0.0015061370182439
252.67,0.0015061370182439
252.69,0.0015061370182439
252.72,0.0015061370182439
252.74,0.0015061370182439
252.77,0.0015061370182439
252.79,0.0015061370182439
252.82,0.0015061370182439
252.84,0.0015061370182439
252.87,0.0015061370182439
252.89,0.0015061370182439
252.92,0.0015061370182439
252.94,0.0015061370182439
252.97,0.0015061370182439
252.99,0.0015061370182439
253.02,0.0015061370182439
253.04,0.0015061370182439
253.07,0.0015061370182439
253.09,0.0015061370182439
253.12,0.0015061370182439
253.14,0.0015061370182439
253.17,0.0015061370182439
253.19,0.0015061370182439
253.22,0.0015061370182439
253.24,0.0015061370182439
253.27,0.0015061370182439
253.29,0.0015061370182439
253.32,0.0015061370182439
253.34,0.0015061370182439
253.37,0.0015061370182439
253.39,0.0015061370182439
253.42,0.0015061370182439
253.44,0.0015061370182439
253.47,0.0015061370182439
253.49,0.0015061370182439
253.52,0.0015061370182439
253.54,0.0015061370182439
253.57,0.0015061370182439
253.59,0.0015061370182439
253.62,0.0015061370182439
253.64,0.0015061370182439
253.67,0.0015061370182439
253.69,0.0015061370182439
253.72,0.0015061370182439
253.74,0.0015061370182439
253.77,0.0015061370182439
253.79,0.0015061370182439
254.62,0.0015061370182439
254.64,0.0015061370182439
254.67,0.0015061370182439
254.69,0.0015061370182439
254.72,0.0015061370182439
254.74,0.0015061370182439
254.77,0.0015061370182439
254.79,0.0015061370182439
254.82,0.0015061370182439
254.84,0.0015061370182439
254.87,0.0015061370182439
254.89,0.0015061370182439
254.92,0.0015061370182439
254.94,0.0015061370182439
254.97,0.0015061370182439
254.99,0.0015061370182439
255.02,0.0015061370182439
255.04,0.0015061370182439
255.07,0.0015061370182439
255.09,0.0015061370182439
255.12,0.0015061370182439
255.14,0.0015061370182439
255.17,0.0015061370182439
255.19,0.0015061370182439
255.22,0.0015061370182439
255.24,0.0015061370182439
255.27,0.0015061370182439
255.29,0.0015061370182439
255.32,0.0015061370182439
255.34,0.0015061370182439
255.37,0.0015061370182439
255.39,0.0015061370182439
255.42,0.0015061370182439
255.44,0.0015061370182439
255.47,0.0015061370182439
255.49,0.0015061370182439
255.52,0.0015061370182439
255.54,0.0015061370182439
255.57,0.0015061370182439
255.59,0.0015061370182439
255.62,0.0015061370182439
255.64,0.0015061370182439
255.67,0.0015061370182439
255.69,0.0015061370182439
255.72,0.0015061370182439
255.74,0.0015061370182439
255.77,0.0015061370182439
255.79,0.0015061370182439
255.82,0.0015061370182439
255.84,0.0015061370182439
255.87,0.0015061370182439
255.89,0.0015061370182439
255.92,0.0015061370182439
255.94,0.0015061370182439
255.97,0.0015061370182439
255.99,0.0015061370182439
256.02,0.0015061370182439
256.04,0.0015061370182439
256.07,0.0015061370182439
256.09,0.0015061370182439
256.12,0.0015061370182439
256.14,0.0015061370182439
256.17,0.0015061370182439
256.19,0.0015061370182439
256.22,0.0015061370182439
256.24,0.0015061370182439
256.27,0.0015061370182439
256.29,0.0015061370182439
256.32,0.0015061370182439
256.34,0.0015061370182439
256.37,0.0015061370182439
256.39,0.0015061370182439
256.42,0.0015061370182439
256.44,0.0015061370182439
256.47,0.0015061370182439
256.49,0.0015061370182439
256.52,0.0015061370182439
256.54,0.0015061370182439
256.57,0.0015061370182439
256.59,0.0015061370182439
256.62,0.0015061370182439
256.64,0.0015061370182439
256.67,0.0015061370182439
256.69,0.0015061370182439
256.72,0.0015061370182439
256.74,0.0015061370182439
256.77,0.0015061370182439
256.79,0.0015061370182439
256.82,0.0015061370182439
256.84,0.0015061370182439
256.87,0.0015061370182439
256.89,0.0015061370182439
256.92,0.0015061370182439
256.94,0.0015061370182439
256.97,0.0015061370182439
256.99,0.0015061370182439
257.02,0.0015061370182439
257.04,0.0015061370182439
257.07,0.0015061370182439
257.09,0.0015061370182439
257.12,0.0015061370182439
257.14,0.0015061370182439
257.17,0.0015061370182439
257.19,0.0015061370182439
257.22,0.0015061370182439
257.24,0.0015061370182439
257.27,0.0015061370182439
257.29,0.0015061370182439
257.32,0.0015061370182439
257.34,0.0015061370182439
257.37,0.0015061370182439
257.39,0.0015061370182439
257.42,0.0015061370182439
257.44,0.0015061370182439
257.47,0.0015061370182439
257.49,0.0015061370182439
257.52,0.0015061370182439
257.54,0.0015061370182439
257.57,0.0015061370182439
257.59,0.0015061370182439
257.62,0.0015061370182439
257.64,0.0015061370182439
257.67,0.0015061370182439
257.69,0.0015061370182439
257.72,0.0015061370182439
257.74,0.0015061370182439
257.77,0.0015061370182439
257.79,0.0015061370182439
257.82,0.0015061370182439
257.84,0.0015061370182439
257.87,0.0015061370182439
257.89,0.0015061370182439
257.92,0.0015061370182439
257.94,0.0015061370182439
257.97,0.0015061370182439
257.99,0.0015061370182439
258.02,0.0015061370182439
258.04,0.0015061370182439
258.07,0.0015061370182439
258.09,0.0015061370182439
258.12,0.0015061370182439
258.14,0.0015061370182439
258.17,0.0015061370182439
258.19,0.0015061370182439
258.22,0.0015061370182439
258.24,0.0015061370182439
258.27,0.0015061370182439
258.29,0.0015061370182439
258.32,0.0015061370182439
258.34,0.0015061370182439
258.37,0.0015061370182439
258.39,0.0015061370182439
258.42,0.0015061370182439
258.44,0.0015061370182439
258.47,0.0015061370182439
258.49,0.0015061370182439
258.52,0.0015061370182439
258.54,0.0015061370182439
258.57,0.0015061370182439
258.59,0.0015061370182439
258.62,0.0015061370182439
258.64,0.0015061370182439
258.67,0.0015061370182439
258.69,0.0015061370182439
258.72,0.0015061370182439
258.74,0.0015061370182439
258.77,0.0015061370182439
258.79,0.0015061370182439
258.82,0.0015061370182439
258.84,0.0015061370182439
258.87,0.0015061370182439
258.89,0.0015061370182439
258.92,0.0015061370182439
258.94,0.0015061370182439
258.97,0.0015061370182439
258.99,0.0015061370182439
259.02,0.0015061370182439
259.04,0.0015061370182439
259.07,0.0015061370182439
259.09,0.0015061370182439
259.12,0.0015061370182439
259.14,0.0015061370182439
259.17,0.0015061370182439
259.19,0.0015061370182439
259.22,0.0015061370182439
259.24,0.0015061370182439
259.27,0.0015061370182439
259.29,0.0015061370182439
259.32,0.0015061370182439
259.34,0.0015061370182439
259.37,0.0015061370182439
259.39,0.0015061370182439
259.42,0.0015061370182439
259.44,0.0015061370182439
259.47,0.0015061370182439
259.49,0.0015061370182439
259.52,0.0015061370182439
259.54,0.0015061370182439
259.57,0.0015061370182439
259.59,0.0015061370182439
259.62,0.0015061370182439
259.64,0.0015061370182439
259.67,0.0015061370182439
259.69,0.0015061370182439
259.72,0.0015061370182439
259.74,0.0015061370182439
259.77,0.0015061370182439
259.79,0.0015061370182439
259.82,0.0015061370182439
259.84,0.0015061370182439
259.87,0.0015061370182439
259.89,0.0015061370182439
259.92,0.0015061370182439
259.94,0.0015061370182439
259.97,0.0015061370182439
259.99,0.0015061370182439
260.02,0.0015061370182439
260.04,0.0015061370182439
260.07,0.0015061370182439
260.09,0.0015061370182439
260.12,0.0015061370182439
260.14,0.0015061370182439
260.17,0.0015061370182439
260.19,0.0015061370182439
260.22,0.0015061370182439
260.24,0.0015061370182439
260.27,0.0015061370182439
260.29,0.0015061370182439
260.32,0.0015061370182439
260.34,0.0015061370182439
260.37,0.0015061370182439
260.39,0.0015061370182439
260.42,0.0015061370182439
260.44,0.0015061370182439
260.47,0.0015061370182439
260.49,0.0015061370182439
260.52,0.0015061370182439
260.54,0.0015061370182439
260.57,0.0015061370182439
260.59,0.0015061370182439
260.62,0.0015061370182439
260.64,0.0015061370182439
260.67,0.0015061370182439
260.69,0.0015061370182439
260.72,0.0015061370182439
260.74,0.0015061370182439
260.77,0.0015061370182439
260.79,0.0015061370182439
260.82,0.0015061370182439
260.84,0.0015061370182439
260.87,0.0015061370182439
260.89,0.0015061370182439
260.92,0.0015061370182439
260.94,0.0015061370182439
260.97,0.0015061370182439
260.99,0.0015061370182439
261.02,0.0015061370182439
261.04,0.0015061370182439
261.07,0.0015061370182439
261.09,0.0015061370182439
261.12,0.0015061370182439
261.14,0.0015061370182433
261.17,0.001506137018241
261.19,0.0015061370182113
261.22,0.0015061370180982
261.24,0.0015061370168651
261.27,0.0015061370127939
261.29,0.0015061369749063
261.32,0.0015061368671406
261.34,0.0015061360075091
261.37,0.0015061339199403
261.39,0.0015061196083711
261.42,0.0015060903197076
261.44,0.0015059168956452
261.47,0.0015056253819524
261.49,0.0015041182641104
261.52,0.0015021436678415
261.54,0.0014930340662324
261.57,0.0014849775554439
261.59,0.001449500951216
261.62,0.0014409872192511
261.64,0.0013765582009686
261.67,0.001493053402408
261.69,0.0016316868047363
261.72,0.0024848440140276
261.74,0.0038544941320764
261.77,0.0070395245323302
261.79,0.0118191043692699
261.82,0.0195378627211484
261.84,0.0297087564330318
261.87,0.0424282254249768
261.89,0.0565675750826337
261.92,0.0703315308652909
261.94,0.0821452902001223
261.97,0.0897107881994123
261.99,0.0920499107577956
262.02,0.0886491488894313
262.04,0.0799584573954065
262.07,0.0677912514659662
262.09,0.0536275320150118
262.12,0.0397435208571543
262.14,0.0275208791035203
262.17,0.0176510402407702
262.19,0.0108389733012356
262.22,0.0060809141077984
262.24,0.003655739551049
262.27,0.0021221488756737
262.29,0.0016812686902417
262.32,0.0013894846472075
262.34,0.0014296595401959
262.37,0.0014185571640357
262.39,0.0014700667613054
262.42,0.0014812840643859
262.44,0.0014979473431321
262.47,0.0015016808085073
262.49,0.001504922845571
262.52,0.0015055812775312
262.54,0.0015060105502589
262.57,0.0015060871287263
262.59,0.0015061274977871
262.62,0.0015061337450126
262.64,0.0015061364935522
262.67,0.001506136859895
262.69,0.0015061369969058
262.72,0.0015061370125668
262.74,0.0015061370175973
262.77,0.0015061370180472
263.17,0.0015061370180154
263.19,0.0015061370160694
263.22,0.0015061370092175
263.24,0.0015061369410562
263.27,0.0015061367343282
263.29,0.0015061349714873
263.32,0.0015061303742716
263.34,0.0015060966617633
263.37,0.0015060219108116
263.39,0.0015055483692298
263.42,0.0015046713367646
263.44,0.0014998333732651
263.47,0.0014926117530517
263.49,0.0014574518026992
263.52,0.0014184447101652
263.54,0.0012442972048404
263.57,0.0011365938208573
263.59,0.0006249065181355
263.62,0.0007943590401647
263.64,0.0005029452578772
263.67,0.003676985528665
263.69,0.0084957068481787
263.72,0.0244316180678275
263.74,0.0494607252240157
263.77,0.0978160431609239
263.79,0.1666486334405424
263.82,0.2656295439578615
263.84,0.3875137325074337
263.87,0.5254226355190059
263.89,0.6656722548474524
263.92,0.7859284436177009
263.94,0.8716427368193589
263.97,0.9051728409396989
263.99,0.882106496894442
264.02,0.8074490871201796
264.04,0.6908211508533826
264.07,0.5545684081077041
264.09,0.4141951866784305
264.12,0.2874318658841257
264.14,0.1855783895817628
264.17,0.107822835897559
264.19,0.0591951691538788
264.22,0.0265825991526886
264.24,0.0122327896405838
264.27,0.0032385011300355
264.29,0.0015890597331112
264.32,0.0002662764471604
264.34,0.000865335844921
264.37,0.0009248092583807
264.39,0.0012849031676951
264.42,0.0013660609407153
264.44,0.0014626889243939
264.47,0.001483750307928
264.49,0.0015003492546984
264.52,0.0015036008841269
264.54,0.0015055871073297
264.57,0.0015059279834116
264.59,0.0015060988753583
264.62,0.0015061243282551
264.64,0.0015061350675664
264.67,0.0015061364465671
264.69,0.0015061369442119
264.72,0.0015061369990809
264.74,0.0015061370161483
264.77,0.0015061370177519
265.39,0.0015061370180678
265.42,0.0015061370176611
265.44,0.0015061370130017
265.47,0.0015061369980063
265.49,0.0015061368619777
265.52,0.0015061364841722
265.54,0.0015061335306411
265.57,0.0015061264999903
265.59,0.0015060789926643
265.62,0.00150598340828
265.64,0.0015054220190841
265.67,0.0015044899151487
265.69,0.0014996811354403
265.72,0.0014934337871677
265.74,0.0014644865589133
265.77,0.0014388201606493
265.79,0.0013246571994042
265.82,0.001294431999518
265.84,0.0010724724162305
