Wavelength (nm),Normalized
201.6,0.0032204929928685
201.62,0.0032204793511281
201.65,0.0032204700890838
201.68,0.0032204652067355
201.7,0.0032204647040833
201.72,0.0032204685811271
201.75,0.0032204105144429
201.78,0.0032202689771464
201.8,0.003219358599327
201.82,0.0032176907624924
201.85,0.0032144755545369
201.88,0.0031981122027847
201.9,0.0031547771755826
201.93,0.0031347433030954
201.95,0.0031683812712696
201.97,0.0032011891630319
202.0,0.0035616884915944
202.03,0.0042569110403929
202.05,0.005661675157854
202.07,0.0080144299041286
202.1,0.0110899054741559
202.12,0.0146014408159591
202.15,0.017925082600579
202.18,0.020208896423736
202.2,0.0210221668852482
202.22,0.0202303266861307
202.25,0.0180575681788013
202.28,0.0147588106426897
202.3,0.011256046870766
202.32,0.0081732301919892
202.35,0.0057970216583363
202.38,0.0043526910748681
202.4,0.0036018232700352
202.43,0.0031694897574559
202.45,0.0030487431363302
202.47,0.0031277498183684
202.5,0.0031824150734053
202.53,0.0031980308763827
202.55,0.0032143994683094
202.57,0.0032176289743236
202.6,0.0032193201671012
202.62,0.0032202629587477
202.65,0.0032204459677556
202.68,0.0032204689011816
202.7,0.003220475613749
202.72,0.0032204777022329
202.75,0.0032204778905376
202.78,0.0032204779369004
202.8,0.0032204779405509
202.82,0.0032204779407532
204.7,0.0032204779407389
204.72,0.0032204779398692
204.75,0.0032204779276578
204.78,0.0032204778739414
204.8,0.003220477217785
204.82,0.0032204749101578
204.85,0.0032204662880761
204.88,0.0032203902365988
204.9,0.0032199453151407
204.93,0.0032190280396147
204.95,0.0032169809398938
204.97,0.0032055635382306
205.0,0.0031910455657626
205.03,0.0031334829812779
205.05,0.0030134460847265
205.07,0.0030281469669799
205.1,0.0032898073420631
205.12,0.0037316151717812
205.15,0.0048885181049371
205.18,0.0075615000645374
205.2,0.0117491914151471
205.22,0.0172694249664925
205.25,0.0236689522237747
205.28,0.0295239704537413
205.3,0.0340434191030149
205.32,0.0359764607564828
205.35,0.0349213890548912
205.38,0.0310658964912284
205.4,0.0254233741506076
205.43,0.019305145741811
205.45,0.013523469119798
205.47,0.0089603828321777
205.5,0.0059848137860521
205.53,0.0041650360803965
205.55,0.0034585614141773
205.57,0.0030505816254803
205.6,0.0029842257841829
205.62,0.0031164134474535
205.65,0.0031851045698938
205.68,0.0031995519166931
205.7,0.0032103018268539
205.72,0.0032180757011888
205.75,0.0032195541581957
205.78,0.0032203169646794
205.8,0.0032204553058712
205.82,0.0032204717738446
205.85,0.0032204763954937
205.88,0.0032204777875696
205.9,0.0032204779284249
205.93,0.0032204779385182
205.95,0.0032204779400747
216.35,0.0032204779386388
216.38,0.0032204779101566
216.4,0.0032204775760878
216.43,0.0032204762831445
216.45,0.0032204709062897
216.47,0.0032204165228246
216.5,0.0032202587748264
216.53,0.0032190364932597
216.55,0.0032124794717845
216.57,0.003199916993073
216.6,0.0031734824989974
216.62,0.0030274342639945
216.65,0.0025736076384154
216.68,0.002199489626557
216.7,0.0020904304691701
216.72,0.0009133173758447
216.75,0.0
216.78,0.0075814291868066
216.8,0.0229231640770398
216.82,0.0595298291088077
216.85,0.1192727196810835
216.88,0.2004939952262879
216.9,0.3026835706309259
216.93,0.4099831174708246
216.95,0.5045023914842504
216.97,0.572478926139528
217.0,0.5941673379015041
217.03,0.572478926139528
217.05,0.5045023914842504
217.07,0.4099831174708246
217.1,0.3026835706309259
217.12,0.2004939952262879
217.15,0.1192727196810835
217.18,0.0595298291088077
217.2,0.0229231640770398
217.22,0.0075814291868066
217.25,0.0
217.28,0.0009133173758447
217.3,0.0020904304691701
217.32,0.002199489626557
217.35,0.0025736076384154
217.38,0.0030274342639945
217.4,0.0031734824989974
217.43,0.003199916993073
217.45,0.0032124794717845
217.47,0.0032190364932597
217.5,0.0032202587748264
217.53,0.0032204165228246
217.55,0.0032204709062897
217.57,0.0032204762831445
217.6,0.0032204775760879
217.62,0.0032204779101576
217.65,0.0032204779386599
219.68,0.0032204779404481
219.7,0.0032204779407442
219.72,0.0032204779407952
219.75,0.0032204779407976
219.78,0.0032204779407979
219.8,0.0032204779407979
219.82,0.0032204779407979
219.85,0.0032204779407979
219.88,0.0032204779407979
219.9,0.0032204779407979
219.93,0.0032204779407979
219.95,0.0032204779407979
219.97,0.0032204779407979
220.0,0.0032204779407979
220.03,0.0032204779407979
220.05,0.0032204779407979
220.07,0.0032204779407979
220.1,0.0032204779407979
220.12,0.0032204779407979
220.15,0.0032204779407978
220.18,0.0032204779407978
220.2,0.0032204779407978
220.22,0.0032204779407978
220.25,0.0032204779407978
220.28,0.0032204779407978
220.3,0.0032204779407978
220.32,0.0032204779407978
220.35,0.0032204779407978
220.38,0.0032204779407978
220.4,0.0032204779407978
220.43,0.0032204779407978
220.45,0.0032204779407978
220.47,0.0032204779407978
220.5,0.0032204779407978
220.53,0.0032204779407978
220.55,0.0032204779407978
220.57,0.0032204779407978
220.6,0.0032204779407978
220.62,0.0032204779407978
220.65,0.0032204779407978
220.68,0.0032204779407978
220.7,0.0032204779407978
220.72,0.0032204779407978
220.75,0.0032204779407978
220.78,0.0032204779407978
220.8,0.0032204779407978
220.82,0.0032204779407978
220.85,0.0032204779407978
220.88,0.0032204779407978
220.9,0.0032204779407978
220.93,0.0032204779407978
220.95,0.0032204779407977
220.97,0.0032204779407974
221.0,0.0032204779407957
221.03,0.0032204779407864
239.47,0.0032204779406506
239.5,0.0032204779400887
239.53,0.0032204779334843
239.55,0.0032204778754035
239.57,0.003220477694816
239.6,0.0032204770712012
239.62,0.0032204717900873
239.65,0.0032204412287696
239.68,0.0032203767594804
239.7,0.0032202229483012
239.72,0.0032192733509216
239.75,0.0032156923128983
239.78,0.0032112538562619
239.8,0.0031924404070599
239.82,0.0031782995483549
239.85,0.0031768916519096
239.88,0.0031181845655361
239.9,0.0030408195154659
239.93,0.0033501420224012
239.95,0.0042236434855838
239.97,0.0055582528270402
240.0,0.0083371064400726
240.03,0.012462818886345
240.05,0.018491771771776
240.07,0.0263653843368489
240.1,0.0351396187833068
240.12,0.0438898694609802
240.15,0.0512137327131818
240.18,0.0554788391541462
240.2,0.055906529262311
240.22,0.0525498766995397
240.25,0.0462796902272068
240.28,0.0375836682421229
240.3,0.0285408891518508
240.32,0.0202954899657556
240.35,0.0135769787613364
240.38,0.0089910038961811
240.4,0.0060810973872693
240.43,0.0041335815284515
240.45,0.0032273260202393
240.47,0.0031265004019609
240.5,0.0031482984466628
240.53,0.0031338402658982
240.55,0.0031871773053045
240.57,0.0031948627079654
240.6,0.0032052904415748
240.62,0.0032161574301976
240.65,0.0032194526115803
240.68,0.0032200261514299
240.7,0.0032202990738129
240.72,0.0032204438292023
240.75,0.0032204663380068
240.78,0.0032204761488039
240.8,0.0032204777069959
240.82,0.0032204778786896
240.85,0.003220477925258
240.88,0.0032204779392017
240.9,0.0032204779406581
240.93,0.0032204779407685
243.88,0.0032204779407673
243.9,0.003220477940508
243.93,0.003220477939498
243.95,0.0032204779352624
243.97,0.0032204778907991
244.0,0.0032204777545281
244.03,0.0032204765998514
244.05,0.0032204695356892
244.07,0.003220453683936
244.1,0.0032204133213371
244.12,0.0032201512823745
244.15,0.0032190835484786
244.18,0.0032175866869934
244.2,0.0032153097044734
244.22,0.0032030297810822
244.25,0.0031709006192605
244.28,0.003158856437849
244.3,0.0031080448566084
244.32,0.0031964666685104
244.35,0.0035093457216241
244.38,0.0039481229803904
244.4,0.0048860502396332
244.43,0.0071108509663877
244.45,0.0107215224621377
244.47,0.0155572673908973
244.5,0.0217646677256881
244.53,0.0288807702702782
244.55,0.036078889769757
244.57,0.0419953925064859
244.6,0.0456112606187453
244.62,0.046449102137742
244.65,0.0443643249862738
244.68,0.0397684177453594
244.7,0.0332685356434415
244.72,0.0259506980976894
244.75,0.019119613600523
244.78,0.0134094082363241
244.8,0.0091689417104451
244.82,0.0060877743266967
244.85,0.0042876814898511
244.88,0.0036240717801853
244.9,0.0033432546497028
244.93,0.0031351152257302
244.95,0.0030983828985086
244.97,0.0031657069345833
245.0,0.0031997508566933
245.03,0.0032077953713176
245.05,0.0032168779657055
245.07,0.0032185586385882
245.1,0.0032195855181062
245.12,0.0032202771427372
245.15,0.0032204399423535
245.18,0.00322046425823
245.2,0.0032204734054435
245.22,0.0032204772518209
245.25,0.003220477741812
245.28,0.0032204779158975
245.3,0.0032204779381459
245.32,0.0032204779401927
245.35,0.0032204779406652
246.88,0.0032204779407646
246.9,0.0032204779405396
246.93,0.003220477939624
246.95,0.0032204779357103
246.97,0.0032204778936378
247.0,0.0032204777615174
247.03,0.003220476609082
247.05,0.0032204693050056
247.07,0.0032204522979551
247.1,0.0032204073520397
247.12,0.0032201063211513
247.15,0.0032188204715801
247.18,0.0032168926348145
247.2,0.0032136887902098
247.22,0.0031962292462975
247.25,0.0031473033119178
247.28,0.0031194830067074
247.3,0.0030095360989149
247.32,0.0030865638916522
247.35,0.0034826117838105
247.38,0.0039674416067268
247.4,0.0051598745288963
247.43,0.008750871542228
247.45,0.0151305428884195
247.47,0.024035844179974
247.5,0.0366173917488118
247.53,0.0520790550786074
247.55,0.0693930278565437
247.57,0.0858341083753727
247.6,0.0987579381938202
247.62,0.1064995494050905
247.65,0.1075581794898037
247.68,0.1015962218515775
247.7,0.0893553661438883
247.72,0.0730040004154949
247.75,0.0558703234914742
247.78,0.0396374772428545
247.8,0.0263589352672141
247.82,0.0160704679776546
247.85,0.0093152818822268
247.88,0.0060389565532405
247.9,0.0043588612179099
247.93,0.0032236773919017
247.95,0.0028681723745288
247.97,0.0030300432940715
248.0,0.0031372248781565
248.03,0.0031598711053675
248.05,0.0032012115797607
248.07,0.003208673785842
248.1,0.003214389698217
248.12,0.0032189501376028
248.15,0.0032201548088311
248.18,0.0032203492588504
248.2,0.0032204311215212
248.22,0.0032204698821508
248.25,0.0032204753844424
248.28,0.0032204775783428
248.3,0.0032204778970006
248.32,0.0032204779297835
248.35,0.0032204779381719
248.38,0.0032204779405376
256.95,0.0032204779407446
256.98,0.0032204779404542
257.0,0.0032204779393497
257.02,0.0032204779280335
257.05,0.0032204778415457
257.07,0.0032204776008465
257.1,0.0032204757088467
257.12,0.0032204711744413
257.15,0.0032204589087872
257.18,0.0032203746439768
257.2,0.0032202176101535
257.23,0.0032193540891137
257.25,0.0032162080111335
257.27,0.0032124250757774
257.3,0.0031959833531993
257.32,0.0031832367471978
257.35,0.0031272494566678
257.38,0.00312737481042
257.4,0.0032307019707001
257.43,0.0032795867030644
257.45,0.0038789800068594
257.48,0.0048131228878919
257.5,0.0073825531088129
257.52,0.011377922425587
257.55,0.0179354649940787
257.57,0.0282281903488341
257.6,0.0415157349004991
257.62,0.0570529727791875
257.65,0.0729023354994703
257.68,0.0873978822632862
257.7,0.0978067881605949
257.73,0.1027783957997228
257.75,0.1015867594844754
257.77,0.0930273154403249
257.8,0.08002949701902
257.82,0.0646656381371683
257.85,0.048694686220836
257.88,0.0341374323847218
257.9,0.0221991503030075
257.93,0.0138285124680108
257.95,0.0081333448042289
257.98,0.0054431673158092
258.0,0.0041185197500863
258.02,0.0033008126423006
258.05,0.0032078082141851
258.07,0.0031081163571862
258.1,0.0031757833506703
258.12,0.0031732304327687
258.15,0.0031877355954698
258.18,0.0032096029246632
258.2,0.0032145483561173
258.23,0.0032188268114589
258.25,0.0032197146691052
258.27,0.0032203040556825
258.3,0.0032204430578517
258.32,0.0032204655718595
258.35,0.0032204759531746
258.38,0.003220477311539
258.4,0.0032204777543132
258.43,0.0032204779162577
258.45,0.0032204779343501
258.48,0.0032204779400786
258.5,0.003220477940722
260.57,0.0032204779407582
260.6,0.0032204779405356
260.62,0.0032204779396723
260.65,0.0032204779361785
260.68,0.0032204779003932
260.7,0.0032204777921626
260.73,0.0032204768698051
260.75,0.0032204710712243
260.77,0.0032204574821311
260.8,0.0032203657908306
260.82,0.0032201794439676
260.85,0.0032190715613149
260.88,0.0032171959624823
260.9,0.0032135834901034
260.93,0.0031925337323929
260.95,0.0031670005425596
260.98,0.0030490970346883
261.0,0.0029585917118505
261.02,0.0025439928459676
261.05,0.0016867835203147
261.07,0.0021370529891848
261.1,0.0024112330279115
261.12,0.0081772166028433
261.15,0.0217237597359169
261.18,0.0408531479705414
261.2,0.0800731554034957
261.23,0.1367811676478258
261.25,0.2213688699811997
261.27,0.3404135555532826
261.3,0.4848269761565424
261.32,0.6413313294792458
261.35,0.7934521634994319
261.38,0.915182539843079
261.4,0.9865656599279016
261.43,1.0
261.45,0.9513039045883692
261.48,0.8462774937568073
261.5,0.7055782254957449
261.52,0.555341246589799
261.55,0.4080862193942315
261.57,0.2788128660272192
261.6,0.1780576433176372
261.62,0.1001397103362843
261.65,0.0492708124373078
261.68,0.0237326925943936
261.7,0.0077258065171421
261.73,0.0034925185072257
261.75,0.0009182237144745
261.77,0.0019969011539558
261.8,0.002689067059205
261.82,0.0028088021040655
261.85,0.0030898915243523
261.88,0.0031352588502115
261.9,0.0031741650468694
261.93,0.0032075990397814
261.95,0.0032145169309808
261.98,0.0032191124260783
262.0,0.0032202006379026
262.02,0.0032203779686314
262.05,0.003220460954276
262.07,0.0032204726123478
262.1,0.0032204772068932
262.12,0.0032204777331516
262.15,0.0032204778786768
262.18,0.0032204778786981
262.2,0.0032204777634489
262.23,0.003220476924115
262.25,0.0032204727458962
262.27,0.0032204650977877
262.3,0.0032204230740717
262.32,0.0032203594032467
262.35,0.003220047748741
262.38,0.0032196946403341
262.4,0.0032193018460438
262.43,0.0032167973237509
262.45,0.0032158726824769
262.48,0.003210046802638
262.5,0.003216605729342
262.52,0.0032220593444527
262.55,0.0032479562665943
262.57,0.0033818792956595
262.6,0.0036052730820454
262.62,0.0040513461394827
262.65,0.0047323806871064
262.68,0.0056114651103606
262.7,0.0067283435722871
262.73,0.0079917383926053
262.75,0.0092999981602652
262.77,0.0104007060143295
262.8,0.0112068446053507
262.82,0.0115363970836314
262.85,0.0113482159237974
262.88,0.0106891793805945
262.9,0.0096311472464034
262.93,0.0083466282468329
262.95,0.0070542648116619
262.98,0.005891416748777
263.0,0.0049582152266711
263.02,0.0042482625745768
263.05,0.0038029881542502
263.07,0.003498688823522
263.1,0.0033561338500225
263.12,0.0032548571793625
263.15,0.0032134753579603
263.18,0.0032133535499748
263.2,0.0032100302686575
263.23,0.0032155707300078
263.25,0.0032168651145153
263.27,0.0032192363204201
263.3,0.0032201034014035
263.32,0.0032202904080718
263.35,0.0032204334013809
263.38,0.0032204577744421
263.4,0.0032204696736583
263.43,0.0032204762660324
263.45,0.0032204773349058
263.48,0.0032204778373946
263.5,0.003220477925162
263.52,0.0032204779362708
263.55,0.0032204779402222
263.57,0.0032204779406512
263.6,0.0032204779407822
263.62,0.0032204779407903
265.5,0.0032204779407781
265.52,0.0032204779406006
265.55,0.0032204779389742
265.57,0.0032204779336694
265.6,0.0032204778842987
265.62,0.0032204777432121
265.65,0.0032204772905267
265.68,0.0032204736562445
265.7,0.0032204652567961
265.73,0.0032204100834039
265.75,0.0032201560666421
265.77,0.0032197290925649
265.8,0.0032175099373881
265.82,0.0032144740287312
265.85,0.0032001548919694
265.88,0.0031862057187484
265.9,0.0031749827095369
265.93,0.0030855248929584
265.95,0.0030827948872562
265.98,0.0029419055823229
266.0,0.0033385778067935
266.02,0.0038523853000034
266.05,0.0053291878175772
266.07,0.0105909847988107
266.1,0.0190837214649526
266.12,0.0345115255132557
266.15,0.0568586042086024
266.18,0.0847994496206516
266.2,0.1184400260451844
266.23,0.1548237426926265
266.25,0.1904580220958759
266.27,0.2178232766037706
266.3,0.2352250583714444
266.32,0.2385439503143245
266.35,0.2274005692631518
266.38,0.204283073523201
266.4,0.1717531435478878
266.43,0.134898316521832
266.45,0.0994071276558407
266.48,0.0688913447030958
266.5,0.0451597644388308
266.52,0.0274238287281607
266.55,0.0167347877202471
266.57,0.0094822103878524
266.6,0.0062485926220479
266.62,0.0039157535286072
266.65,0.0029948427950758
266.68,0.0030339236657305
266.7,0.0029699962453488
266.73,0.0031056212618997
266.75,0.0031370970357485
266.77,0.0031920924171069
266.8,0.0032119675581758
266.82,0.0032162241898712
266.85,0.0032194689807048
266.88,0.0032200199397336
266.9,0.0032202894544287
266.93,0.0032204394821291
266.95,0.0032204639260035
266.98,0.0032204755213562
267.0,0.0032204775696642
267.02,0.0032204778321207
267.05,0.0032204779267248
267.07,0.003220477937162
267.1,0.0032204779404052
267.12,0.0032204779406828
279.35,0.0032204779405271
279.38,0.0032204779397767
279.4,0.0032204779368514
279.43,0.0032204779086209
279.45,0.0032204778280098
279.48,0.0032204771758488
279.5,0.003220475556341
279.52,0.0032204640754257
279.55,0.003220405509529
279.57,0.0032202942055885
279.6,0.003219655502447
279.62,0.003218614388345
279.65,0.0032166731403571
279.68,0.003205290847629
279.7,0.0031918667567789
279.73,0.0031289235486599
279.75,0.0029608993499593
279.77,0.0028847651957877
279.8,0.0025113388088293
279.82,0.0027896182195266
279.85,0.0027781886263039
279.88,0.0057096234863736
279.9,0.0129177086353813
279.93,0.0225703314213839
279.95,0.0445381473372123
279.98,0.0765063183455584
280.0,0.1314989011676405
280.02,0.2059580724276104
280.05,0.3051539503478708
280.07,0.428527935414733
280.1,0.5645816700954924
280.12,0.6976084690615181
280.15,0.8088753776333266
280.18,0.8867519027631494
280.2,0.916496165172704
280.23,0.8943249061429669
280.25,0.8272901213477746
280.27,0.7142075933230819
280.3,0.5827357322599153
280.32,0.4475347212248156
280.35,0.3219563244778183
280.38,0.2130159187763175
280.4,0.1287485597723967
280.43,0.0733491618013109
280.45,0.0356948109563536
280.48,0.0187880220487682
280.5,0.0101717126434261
280.52,0.0045124184126016
280.55,0.0036338953076258
280.57,0.002736570448121
280.6,0.0030432699549101
280.62,0.0029374072195591
280.65,0.002996614133938
280.68,0.0031403737527839
280.7,0.00317170920892
280.73,0.0032053261004008
280.75,0.0032126600057562
280.77,0.0032184572496568
280.8,0.0032200110538858
280.82,0.003220290338039
280.85,0.0032204424960793
280.88,0.0032204648624881
280.9,0.0032204734361964
280.93,0.0032204772044529
280.95,0.0032204777118577
280.98,0.0032204779083458
281.0,0.0032204779366737
281.02,0.0032204779397362
281.05,0.0032204779406772
281.48,0.0032204779407258
281.5,0.0032204779406155
281.52,0.0032204779393394
281.55,0.0032204779301882
281.57,0.0032204779058606
281.6,0.0032204777196798
281.62,0.003220477281449
281.65,0.0032204761003204
281.68,0.0032204678510258
281.7,0.0032204520672466
281.73,0.0032203615222948
281.75,0.0032200088476363
281.77,0.0032195314887297
281.8,0.0032172790122331
281.82,0.0032149185022117
281.85,0.0032040689887824
281.88,0.0031975639500902
281.9,0.0032001273750932
281.93,0.0031629475236647
281.95,0.0032080355011314
281.98,0.0032188931995482
282.0,0.0036024537320067
282.02,0.0041608147718322
282.05,0.0053628295978991
282.07,0.008534347305528
282.1,0.0133659199967593
282.12,0.0213932729266274
282.15,0.0324422959638458
282.18,0.0457614679222465
282.2,0.0612663915951598
282.23,0.0775480334495306
282.25,0.0931801526599408
282.27,0.1049704664207923
282.3,0.1124084200541755
282.32,0.1138295076655851
282.35,0.1090787330164324
282.38,0.0991143273667788
282.4,0.0849277690918934
282.43,0.0686661847903236
282.45,0.052617836930492
282.48,0.0383985202072446
282.5,0.026866669448939
282.52,0.0178798720325046
282.55,0.0120266624918065
282.57,0.0078487343938031
282.6,0.0056840806926544
282.62,0.0041066233423108
282.65,0.0033632562554809
282.68,0.0032315514291627
282.7,0.0031137602851104
282.73,0.0031593058076529
282.75,0.0031614101625752
282.77,0.0031930108481192
282.8,0.0031935982034556
282.82,0.0031837381726017
282.85,0.0031272715857682
282.88,0.0031009699146499
282.9,0.0031386242406173
282.93,0.0029917900000001
282.95,0.0033314543324874
282.98,0.0036081805476012
283.0,0.0058887107783313
283.02,0.009303115765892
283.05,0.0161734873893269
283.07,0.0323438446986952
283.1,0.0564192918258777
283.12,0.0943358453074778
283.15,0.1446682638638979
283.18,0.2038009814678377
283.2,0.269794461639208
