Wavelength (nm),Normalized
201.97,0.0003596704319283
202.0,0.0003596542237107
202.03,0.0003596433448073
202.05,0.0003596377952181
202.07,0.000359637574943
202.1,0.0003596426839821
202.12,0.0003595721824786
202.15,0.0003591388299859
202.18,0.0003582044224477
202.2,0.0003560244055484
202.22,0.0003435831546568
202.25,0.0003028554528714
202.28,0.0002654792496296
202.3,0.0001426837939382
202.32,0.0001597493056122
202.35,0.0004476207367155
202.38,0.0009216094492427
202.4,0.0022322729333991
202.43,0.0053742602371455
202.45,0.0103685750437589
202.47,0.0170150432677799
202.5,0.0245098908735595
202.53,0.0320061057826549
202.55,0.0377872843225157
202.57,0.040331556184398
202.6,0.0391481107532343
202.62,0.0344633456732392
202.65,0.0275281762762636
202.68,0.019969054619828
202.7,0.0127863003026526
202.72,0.0070557513513313
202.75,0.0032126093701038
202.78,0.0013539638358761
202.8,0.0005730393676212
202.82,0.0001273016059849
202.85,7.139845199240918e-05
202.88,0.0002359876403242
202.9,0.0003182601316645
202.93,0.0003359220650952
202.95,0.0003483536688433
202.97,0.0003571071040577
203.0,0.000359180240004
203.03,0.0003595021916153
203.05,0.0003596327207348
203.07,0.0003596476145458
203.1,0.0003596516155458
203.12,0.0003596527620831
203.15,0.0003596528710062
203.18,0.0003596528783907
203.2,0.0003596528796725
203.35,0.0003596528799017
203.38,0.0003596528799125
203.4,0.000359652879914
203.43,0.0003596528799141
203.45,0.0003596528799141
203.47,0.0003596528799141
203.5,0.0003596528799141
203.53,0.0003596528799141
203.55,0.0003596528799141
203.57,0.0003596528799141
203.6,0.0003596528799141
203.62,0.0003596528799141
203.65,0.0003596528799141
203.68,0.0003596528799141
203.7,0.0003596528799141
203.72,0.0003596528799141
203.75,0.0003596528799141
203.78,0.0003596528799141
203.8,0.0003596528799141
203.82,0.0003596528799141
203.85,0.0003596528799141
203.88,0.0003596528799141
203.9,0.0003596528799141
203.93,0.0003596528799141
203.95,0.0003596528799141
203.97,0.0003596528799141
204.0,0.0003596528799141
204.03,0.0003596528799141
204.05,0.0003596528799141
204.07,0.0003596528799141
204.1,0.0003596528799141
204.12,0.0003596528799141
204.15,0.0003596528799141
204.18,0.0003596528799141
204.2,0.0003596528799141
204.22,0.0003596528799141
204.25,0.0003596528799141
204.28,0.0003596528799141
204.3,0.0003596528799141
204.32,0.0003596528799141
204.35,0.0003596528799141
204.38,0.0003596528799141
204.4,0.0003596528799141
204.43,0.0003596528799141
204.45,0.0003596528799141
204.47,0.0003596528799141
204.5,0.0003596528799141
204.53,0.0003596528799141
204.55,0.0003596528799141
204.57,0.0003596528799141
204.93,0.0003596528799141
204.95,0.0003596528799141
204.97,0.0003596528799141
205.0,0.0003596528799141
205.03,0.0003596528799141
205.05,0.0003596528799141
205.07,0.0003596528799141
205.1,0.0003596528799141
205.12,0.0003596528799141
205.15,0.0003596528799141
205.18,0.0003596528799141
205.2,0.0003596528799141
205.22,0.0003596528799141
205.25,0.0003596528799141
205.28,0.0003596528799141
205.3,0.0003596528799141
205.32,0.0003596528799141
205.35,0.0003596528799141
205.38,0.0003596528799141
205.4,0.0003596528799141
205.43,0.0003596528799141
205.45,0.0003596528799141
205.47,0.0003596528799141
205.5,0.0003596528799141
205.53,0.0003596528799141
205.55,0.0003596528799141
205.57,0.0003596528799141
205.6,0.0003596528799141
205.62,0.0003596528799141
205.65,0.0003596528799141
205.68,0.0003596528799141
205.7,0.0003596528799141
205.72,0.0003596528799141
205.75,0.0003596528799141
205.78,0.0003596528799141
205.8,0.0003596528799141
205.82,0.0003596528799141
205.85,0.0003596528799141
205.88,0.0003596528799141
205.9,0.0003596528799141
205.93,0.0003596528799141
205.95,0.0003596528799141
205.97,0.0003596528799141
206.0,0.0003596528799141
206.03,0.0003596528799141
206.05,0.0003596528799141
206.07,0.0003596528799141
206.1,0.0003596528799141
206.12,0.0003596528799141
206.15,0.0003596528799141
206.18,0.0003596528799141
206.2,0.0003596528799141
206.22,0.0003596528799141
206.25,0.0003596528799141
206.28,0.0003596528799141
206.3,0.0003596528799141
206.32,0.0003596528799141
206.35,0.0003596528799141
206.38,0.0003596528799141
206.4,0.0003596528799141
206.43,0.0003596528799141
206.45,0.0003596528799141
206.47,0.0003596528799141
206.5,0.0003596528799141
206.53,0.0003596528799141
206.55,0.0003596528799141
206.57,0.0003596528799141
206.6,0.0003596528799141
206.62,0.0003596528799141
206.65,0.0003596528799141
206.68,0.0003596528799141
206.7,0.0003596528799141
206.72,0.0003596528799141
206.75,0.0003596528799141
206.78,0.0003596528799141
206.8,0.0003596528799141
206.82,0.0003596528799141
206.85,0.0003596528799141
206.88,0.0003596528799141
206.9,0.0003596528799141
206.93,0.0003596528799141
206.95,0.0003596528799141
206.97,0.0003596528799141
207.0,0.0003596528799141
207.03,0.0003596528799141
207.05,0.0003596528799141
207.07,0.0003596528799141
207.1,0.0003596528799141
207.12,0.0003596528799141
207.95,0.0003596528799141
207.97,0.0003596528799141
208.0,0.0003596528799141
208.03,0.0003596528799141
208.05,0.0003596528799141
208.07,0.0003596528799141
208.1,0.0003596528799141
208.12,0.0003596528799141
208.15,0.0003596528799141
208.18,0.0003596528799141
208.2,0.0003596528799141
208.22,0.0003596528799141
208.25,0.0003596528799141
208.28,0.0003596528799141
208.3,0.0003596528799141
208.32,0.0003596528799141
208.35,0.0003596528799141
208.38,0.0003596528799141
208.4,0.0003596528799141
208.43,0.0003596528799141
208.45,0.0003596528799141
208.47,0.0003596528799141
208.5,0.0003596528799141
208.53,0.0003596528799141
208.55,0.0003596528799141
208.57,0.0003596528799141
208.6,0.0003596528799141
208.62,0.0003596528799141
208.65,0.0003596528799141
208.68,0.0003596528799141
208.7,0.0003596528799141
208.72,0.0003596528799141
208.75,0.0003596528799141
208.78,0.0003596528799141
208.8,0.0003596528799141
208.82,0.0003596528799141
208.85,0.0003596528799141
208.88,0.0003596528799141
208.9,0.0003596528799141
208.93,0.0003596528799141
208.95,0.0003596528799141
208.97,0.0003596528799141
209.0,0.0003596528799141
209.03,0.0003596528799141
209.05,0.0003596528799141
209.07,0.0003596528799141
209.1,0.0003596528799141
209.12,0.0003596528799141
209.15,0.0003596528799141
209.18,0.0003596528799141
209.2,0.0003596528799141
209.22,0.0003596528799141
209.25,0.0003596528799141
209.28,0.0003596528799141
209.3,0.0003596528799141
209.32,0.0003596528799141
209.35,0.0003596528799141
209.38,0.0003596528799141
209.4,0.0003596528799141
209.43,0.0003596528799141
209.45,0.0003596528799141
209.47,0.0003596528799141
209.5,0.0003596528799141
209.53,0.0003596528799141
209.55,0.0003596528799141
209.57,0.0003596528799141
209.6,0.0003596528799141
209.62,0.0003596528799141
209.65,0.0003596528799141
209.68,0.0003596528799141
209.7,0.0003596528799141
209.72,0.0003596528799141
209.75,0.0003596528799141
209.78,0.0003596528799141
209.8,0.0003596528799141
209.82,0.0003596528799141
209.85,0.0003596528799141
209.88,0.0003596528799141
209.9,0.0003596528799141
209.93,0.0003596528799141
209.95,0.0003596528799141
209.97,0.0003596528799141
210.0,0.0003596528799141
210.03,0.0003596528799141
210.05,0.0003596528799141
210.07,0.0003596528799141
210.1,0.0003596528799141
210.12,0.0003596528799141
210.15,0.0003596528799141
210.18,0.0003596528799141
210.2,0.0003596528799141
210.22,0.0003596528799141
210.25,0.0003596528799141
210.28,0.0003596528799141
210.3,0.0003596528799141
210.32,0.0003596528799141
210.35,0.0003596528799141
210.38,0.0003596528799141
210.4,0.0003596528799141
210.43,0.0003596528799141
210.65,0.0003596528799141
210.68,0.0003596528799141
210.7,0.0003596528799141
210.72,0.0003596528799141
210.75,0.0003596528799141
210.78,0.0003596528799141
210.8,0.0003596528799141
210.82,0.0003596528799141
210.85,0.0003596528799141
210.88,0.0003596528799141
210.9,0.0003596528799141
210.93,0.0003596528799141
210.95,0.0003596528799141
210.97,0.0003596528799141
211.0,0.0003596528799141
211.03,0.0003596528799141
211.05,0.0003596528799141
211.07,0.0003596528799141
211.1,0.0003596528799141
211.12,0.0003596528799141
211.15,0.0003596528799141
211.18,0.0003596528799141
211.2,0.0003596528799141
211.22,0.0003596528799141
211.25,0.0003596528799141
211.28,0.0003596528799141
211.3,0.0003596528799141
211.32,0.0003596528799141
211.35,0.0003596528799141
211.38,0.0003596528799141
211.4,0.0003596528799141
211.43,0.0003596528799141
211.45,0.0003596528799141
211.47,0.0003596528799141
211.5,0.0003596528799141
211.53,0.0003596528799141
211.55,0.0003596528799141
211.57,0.0003596528799141
211.6,0.0003596528799141
211.62,0.0003596528799141
211.65,0.0003596528799141
211.68,0.0003596528799141
211.7,0.0003596528799141
211.72,0.0003596528799141
211.75,0.0003596528799141
211.78,0.0003596528799141
211.8,0.0003596528799141
211.82,0.0003596528799141
211.85,0.0003596528799141
211.88,0.0003596528799141
211.9,0.0003596528799141
212.75,0.0003596528799141
212.78,0.0003596528799141
212.8,0.0003596528799141
212.82,0.0003596528799141
212.85,0.0003596528799141
212.88,0.0003596528799141
212.9,0.0003596528799141
212.93,0.0003596528799141
212.95,0.0003596528799141
212.97,0.0003596528799141
213.0,0.0003596528799141
213.03,0.0003596528799141
213.05,0.0003596528799141
213.07,0.0003596528799141
213.1,0.0003596528799141
213.12,0.0003596528799141
213.15,0.0003596528799141
213.18,0.0003596528799141
213.2,0.0003596528799141
213.22,0.0003596528799141
213.25,0.0003596528799141
213.28,0.0003596528799141
213.3,0.0003596528799141
213.32,0.0003596528799141
213.35,0.0003596528799141
213.38,0.0003596528799141
213.4,0.0003596528799141
213.43,0.0003596528799141
213.45,0.0003596528799141
213.47,0.0003596528799141
213.5,0.0003596528799141
213.53,0.0003596528799141
213.55,0.0003596528799141
213.57,0.0003596528799141
213.6,0.0003596528799141
213.62,0.0003596528799141
213.65,0.0003596528799141
213.68,0.0003596528799141
213.7,0.0003596528799141
213.72,0.0003596528799141
213.75,0.0003596528799141
213.78,0.0003596528799141
213.8,0.0003596528799141
213.82,0.0003596528799141
213.85,0.0003596528799141
213.88,0.0003596528799141
213.9,0.0003596528799141
213.93,0.0003596528799141
213.95,0.0003596528799141
213.97,0.0003596528799141
214.0,0.0003596528799141
214.03,0.0003596528799141
214.05,0.0003596528799141
217.1,0.0003596528799141
217.12,0.0003596528799141
217.15,0.0003596528799141
217.18,0.0003596528799141
217.2,0.0003596528799141
217.22,0.0003596528799141
217.25,0.0003596528799141
217.28,0.0003596528799141
217.3,0.0003596528799141
217.32,0.0003596528799141
217.35,0.0003596528799141
217.38,0.0003596528799141
217.4,0.0003596528799141
217.43,0.0003596528799141
217.45,0.0003596528799141
217.47,0.0003596528799141
217.5,0.0003596528799141
217.53,0.0003596528799141
217.55,0.0003596528799141
217.57,0.0003596528799141
217.6,0.0003596528799141
217.62,0.0003596528799141
217.65,0.0003596528799141
217.68,0.0003596528799141
217.7,0.0003596528799141
217.72,0.0003596528799141
217.75,0.0003596528799141
217.78,0.0003596528799141
217.8,0.0003596528799141
217.82,0.0003596528799141
217.85,0.0003596528799141
217.88,0.0003596528799141
217.9,0.0003596528799141
217.93,0.0003596528799141
217.95,0.0003596528799141
217.97,0.0003596528799141
218.0,0.0003596528799141
218.03,0.0003596528799141
218.05,0.0003596528799141
218.07,0.0003596528799141
218.1,0.0003596528799141
218.12,0.0003596528799141
218.15,0.0003596528799141
218.18,0.0003596528799141
218.2,0.0003596528799141
218.22,0.0003596528799141
218.25,0.0003596528799141
218.28,0.0003596528799141
218.3,0.0003596528799141
218.32,0.0003596528799141
218.35,0.0003596528799141
218.38,0.0003596528799141
218.4,0.0003596528799141
218.43,0.0003596528799141
224.7,0.0003596528799141
224.72,0.0003596528799141
224.75,0.0003596528799141
224.78,0.0003596528799141
224.8,0.0003596528799141
224.82,0.0003596528799141
224.85,0.0003596528799141
224.88,0.0003596528799141
224.9,0.0003596528799141
224.93,0.0003596528799141
224.95,0.0003596528799141
224.97,0.0003596528799141
225.0,0.0003596528799141
225.03,0.0003596528799141
225.05,0.0003596528799141
225.07,0.0003596528799141
225.1,0.0003596528799141
225.12,0.0003596528799141
225.15,0.0003596528799141
225.18,0.0003596528799141
225.2,0.0003596528799141
225.22,0.0003596528799141
225.25,0.0003596528799141
225.28,0.0003596528799141
225.3,0.0003596528799141
225.32,0.0003596528799141
225.35,0.0003596528799141
225.38,0.0003596528799141
225.4,0.0003596528799141
225.43,0.0003596528799141
225.45,0.0003596528799141
225.47,0.0003596528799141
225.5,0.0003596528799141
225.53,0.0003596528799141
225.55,0.0003596528799141
225.57,0.0003596528799141
225.6,0.0003596528799141
225.62,0.0003596528799141
225.65,0.0003596528799141
225.68,0.0003596528799141
225.7,0.0003596528799141
225.72,0.0003596528799141
225.75,0.0003596528799141
225.78,0.0003596528799141
225.8,0.0003596528799141
225.82,0.0003596528799141
225.85,0.0003596528799141
225.88,0.0003596528799141
225.9,0.0003596528799141
225.93,0.0003596528799141
225.95,0.0003596528799141
225.97,0.0003596528799141
226.0,0.0003596528799141
226.03,0.0003596528799141
226.05,0.0003596528799141
226.07,0.0003596528799141
232.25,0.0003596528799141
232.28,0.0003596528799141
232.3,0.0003596528799141
232.32,0.0003596528799141
232.35,0.0003596528799141
232.38,0.0003596528799141
232.4,0.0003596528799141
232.43,0.0003596528799141
232.45,0.0003596528799141
232.47,0.0003596528799141
232.5,0.0003596528799141
232.53,0.0003596528799141
232.55,0.0003596528799141
232.57,0.0003596528799141
232.6,0.0003596528799141
232.62,0.0003596528799141
232.65,0.0003596528799141
232.68,0.0003596528799141
232.7,0.0003596528799141
232.72,0.0003596528799141
232.75,0.0003596528799141
232.78,0.0003596528799141
232.8,0.0003596528799141
232.82,0.0003596528799141
232.85,0.0003596528799141
232.88,0.0003596528799141
232.9,0.0003596528799141
232.93,0.0003596528799141
232.95,0.0003596528799141
232.97,0.0003596528799141
233.0,0.0003596528799141
233.03,0.0003596528799141
233.05,0.0003596528799141
233.07,0.0003596528799141
233.1,0.0003596528799141
233.12,0.0003596528799141
233.15,0.0003596528799141
233.18,0.0003596528799141
233.2,0.0003596528799141
233.22,0.0003596528799141
233.25,0.0003596528799141
233.28,0.0003596528799141
233.3,0.0003596528799141
233.32,0.0003596528799141
233.35,0.0003596528799141
233.38,0.0003596528799141
233.4,0.0003596528799141
233.43,0.0003596528799141
233.45,0.0003596528799141
233.47,0.0003596528799141
233.5,0.0003596528799141
233.53,0.0003596528799141
233.55,0.0003596528799141
233.57,0.0003596528799141
233.6,0.0003596528799141
233.62,0.0003596528799141
233.65,0.0003596528799141
238.78,0.0003596528799141
238.8,0.0003596528799141
238.82,0.0003596528799141
238.85,0.0003596528799141
238.88,0.0003596528799141
238.9,0.0003596528799141
238.93,0.0003596528799141
238.95,0.0003596528799141
238.97,0.0003596528799141
239.0,0.0003596528799141
239.03,0.0003596528799141
239.05,0.0003596528799141
239.07,0.0003596528799141
239.1,0.0003596528799141
239.12,0.0003596528799141
239.15,0.0003596528799141
239.18,0.0003596528799141
239.2,0.0003596528799141
239.22,0.0003596528799141
239.25,0.0003596528799141
239.28,0.0003596528799141
239.3,0.0003596528799141
239.32,0.0003596528799141
239.35,0.0003596528799141
239.38,0.0003596528799141
239.4,0.0003596528799141
239.43,0.0003596528799141
239.45,0.0003596528799141
239.47,0.0003596528799141
239.5,0.0003596528799141
239.53,0.0003596528799141
239.55,0.0003596528799141
239.57,0.0003596528799141
239.6,0.0003596528799141
239.62,0.0003596528799141
239.65,0.0003596528799141
239.68,0.0003596528799141
239.7,0.0003596528799141
239.72,0.0003596528799141
239.75,0.0003596528799141
239.78,0.0003596528799141
239.8,0.0003596528799141
239.82,0.0003596528799141
239.85,0.0003596528799141
239.88,0.0003596528799141
239.9,0.0003596528799141
239.93,0.0003596528799141
239.95,0.0003596528799141
239.97,0.0003596528799141
240.0,0.0003596528799141
240.03,0.0003596528799141
240.05,0.0003596528799141
240.07,0.0003596528799141
240.1,0.0003596528799141
240.12,0.0003596528799141
240.15,0.0003596528799141
240.18,0.0003596528799141
240.2,0.0003596528799141
240.22,0.0003596528799141
240.25,0.0003596528799141
244.22,0.0003596528799141
244.25,0.0003596528799141
244.28,0.0003596528799141
244.3,0.0003596528799141
244.32,0.0003596528799141
244.35,0.0003596528799141
244.38,0.0003596528799141
244.4,0.0003596528799141
244.43,0.0003596528799141
244.45,0.0003596528799141
244.47,0.0003596528799141
244.5,0.0003596528799141
244.53,0.0003596528799141
244.55,0.0003596528799141
244.57,0.0003596528799141
244.6,0.0003596528799141
244.62,0.0003596528799141
244.65,0.0003596528799141
244.68,0.0003596528799141
244.7,0.0003596528799141
244.72,0.0003596528799141
244.75,0.0003596528799141
244.78,0.0003596528799141
244.8,0.0003596528799141
244.82,0.0003596528799141
244.85,0.0003596528799141
244.88,0.0003596528799141
244.9,0.0003596528799141
244.93,0.0003596528799141
244.95,0.0003596528799141
244.97,0.0003596528799141
245.0,0.0003596528799141
245.03,0.0003596528799141
245.05,0.0003596528799141
245.07,0.0003596528799141
245.1,0.0003596528799141
245.12,0.0003596528799141
245.15,0.0003596528799141
245.18,0.0003596528799141
245.2,0.0003596528799141
245.22,0.0003596528799141
245.25,0.0003596528799141
245.28,0.0003596528799141
245.3,0.0003596528799141
245.32,0.0003596528799141
245.35,0.0003596528799141
245.38,0.0003596528799141
245.4,0.0003596528799141
245.43,0.0003596528799141
245.45,0.0003596528799141
245.47,0.0003596528799141
245.5,0.0003596528799141
245.53,0.0003596528799141
245.55,0.0003596528799141
245.57,0.0003596528799141
245.6,0.0003596528799141
245.62,0.0003596528799141
245.65,0.0003596528799141
245.68,0.0003596528799141
245.7,0.0003596528799141
246.03,0.0003596528799141
246.05,0.0003596528799141
246.07,0.0003596528799141
246.1,0.0003596528799141
246.12,0.0003596528799141
246.15,0.0003596528799141
246.18,0.0003596528799141
246.2,0.0003596528799141
246.22,0.0003596528799141
246.25,0.0003596528799141
246.28,0.0003596528799141
246.3,0.0003596528799141
246.32,0.0003596528799141
246.35,0.0003596528799141
246.38,0.0003596528799141
246.4,0.0003596528799141
246.43,0.0003596528799141
246.45,0.0003596528799141
246.47,0.0003596528799141
246.5,0.0003596528799141
246.53,0.0003596528799141
246.55,0.0003596528799141
246.57,0.0003596528799141
246.6,0.0003596528799141
246.62,0.0003596528799141
246.65,0.0003596528799141
246.68,0.0003596528799141
246.7,0.0003596528799141
246.72,0.0003596528799141
246.75,0.0003596528799141
246.78,0.0003596528799141
246.8,0.0003596528799141
246.82,0.0003596528799141
246.85,0.0003596528799141
246.88,0.0003596528799141
246.9,0.0003596528799141
246.93,0.0003596528799141
246.95,0.0003596528799141
246.97,0.0003596528799141
247.0,0.0003596528799141
247.03,0.0003596528799141
247.05,0.0003596528799141
247.07,0.0003596528799141
247.1,0.0003596528799141
247.12,0.0003596528799141
247.15,0.0003596528799141
247.18,0.0003596528799141
247.2,0.0003596528799141
247.22,0.0003596528799141
247.25,0.0003596528799141
247.28,0.0003596528799141
247.3,0.0003596528799141
247.32,0.0003596528799141
247.35,0.0003596528799141
247.38,0.0003596528799141
247.4,0.0003596528799141
247.43,0.0003596528799141
247.45,0.0003596528799141
247.47,0.0003596528799141
247.5,0.0003596528799141
247.53,0.0003596528799141
248.3,0.0003596528799141
248.32,0.0003596528799141
248.35,0.0003596528799141
248.38,0.0003596528799141
248.4,0.0003596528799141
248.43,0.0003596528799141
248.45,0.0003596528799141
248.47,0.0003596528799141
248.5,0.0003596528799141
248.53,0.0003596528799141
248.55,0.0003596528799141
248.57,0.0003596528799141
248.6,0.0003596528799141
248.62,0.0003596528799141
248.65,0.0003596528799141
248.68,0.0003596528799141
248.7,0.0003596528799141
248.72,0.0003596528799141
248.75,0.0003596528799141
248.78,0.0003596528799141
248.8,0.0003596528799141
248.82,0.0003596528799141
248.85,0.0003596528799141
248.88,0.0003596528799141
248.9,0.0003596528799141
248.93,0.0003596528799141
248.95,0.0003596528799141
248.97,0.0003596528799141
249.0,0.0003596528799141
249.03,0.0003596528799141
249.05,0.0003596528799141
249.07,0.0003596528799141
249.1,0.0003596528799141
249.12,0.0003596528799141
