Wavelength (nm),Normalized
278.55,0.0004325084425132
278.57,0.0004325084364755
278.6,0.0004325084323758
278.62,0.0004325084302142
278.65,0.0004325084299906
278.67,0.0004325084317051
278.7,0.0004325084203009
278.72,0.0004325083194992
278.75,0.0004325080452593
278.77,0.0004325071986188
278.8,0.0004325005945654
278.82,0.0004324858036645
278.85,0.000432390348375
278.87,0.0004322087718465
278.89,0.0004311727801798
278.92,0.0004295333118561
278.94,0.0004211693548905
278.97,0.0004106866927368
278.99,0.0003616032516815
279.02,0.0003192178953535
279.04,0.0001226657353016
279.07,6.568860606817836e-05
279.09,0.0002736182018859
279.12,0.0
279.14,0.0014605668305306
279.17,0.0031816325346221
279.19,0.0113422256176389
279.21,0.0238468036474834
279.24,0.0525259592263685
279.26,0.0947754392435895
279.29,0.1645062455070006
279.31,0.2573353704945659
279.34,0.3784798629535221
279.36,0.5179565905127799
279.39,0.6647131255590849
279.41,0.7994902309852158
279.44,0.9136457137196048
279.46,0.9793114659653764
279.49,1.0
279.51,0.9596522603080512
279.53,0.8787548472897604
279.56,0.7625813611067086
279.58,0.637875345810965
279.61,0.5239697809409247
279.63,0.4355615030394005
279.66,0.3904969801876399
279.68,0.3922750624865277
279.71,0.4322769158542174
279.73,0.5040556590619638
279.76,0.5855248841538852
279.78,0.6617031814456301
279.81,0.7176811175977797
279.83,0.7397202077713451
279.85,0.7299597488851524
279.88,0.6877026367095779
279.9,0.6292325196141407
279.93,0.5651105933224072
279.95,0.5111983116250562
279.98,0.4762124764067591
280.0,0.4652800693486795
280.03,0.4715853304542934
280.05,0.4922392092117272
280.08,0.5075688377870714
280.1,0.5117218062449124
280.13,0.4987660641570637
280.15,0.4627540995101319
280.18,0.4097610490402382
280.2,0.3420794593006281
280.22,0.2709312088810611
280.25,0.2020722060989304
280.27,0.141387596797641
280.3,0.093372860202005
280.32,0.0552969765299245
280.35,0.0294669112625227
280.37,0.0154215322844702
280.4,0.0061076562952161
280.42,0.0027377267578464
280.45,0.0004914267789707
280.47,0.0003132567913071
280.5,3.598083687708694e-05
280.52,0.0002512933256361
280.54,0.0002782445812903
280.57,0.000377824206422
280.59,0.0003987532551047
280.62,0.000423074622116
280.64,0.0004272009827341
280.67,0.0004298990210111
280.69,0.0004318618922542
280.72,0.0004322316830202
280.74,0.0004324496257702
280.77,0.0004324862247392
280.79,0.0004325043823556
280.82,0.0004325070749384
280.84,0.0004325082224455
280.86,0.0004325083719037
280.89,0.0004325084272466
280.91,0.0004325084335535
280.94,0.0004325084355938
280.96,0.0004325084357894
280.99,0.0004325084358373
281.01,0.0004325084358503
281.04,0.0004325084358514
281.06,0.0004325084358516
281.09,0.0004325084358516
281.11,0.0004325084358516
281.14,0.0004325084358516
281.16,0.0004325084358516
281.18,0.0004325084358516
281.21,0.0004325084358516
281.23,0.0004325084358516
281.26,0.0004325084358516
281.28,0.0004325084358516
281.31,0.0004325084358516
281.33,0.0004325084358516
281.36,0.0004325084358516
281.38,0.0004325084358516
281.41,0.0004325084358516
281.43,0.0004325084358516
281.46,0.0004325084358516
281.48,0.0004325084358516
281.5,0.0004325084358516
281.53,0.0004325084358516
281.55,0.0004325084358516
281.58,0.0004325084358516
281.6,0.0004325084358516
281.63,0.0004325084358516
281.65,0.0004325084358516
281.68,0.0004325084358516
281.7,0.0004325084358516
281.73,0.0004325084358516
281.75,0.0004325084358516
281.78,0.0004325084358516
281.8,0.0004325084358516
281.82,0.0004325084358516
281.85,0.0004325084358516
281.87,0.0004325084358516
281.9,0.0004325084358516
281.92,0.0004325084358516
281.95,0.0004325084358516
281.97,0.0004325084358516
282.0,0.0004325084358516
282.02,0.0004325084358516
282.05,0.0004325084358516
282.07,0.0004325084358516
282.1,0.0004325084358516
282.12,0.0004325084358516
282.14,0.0004325084358516
282.17,0.0004325084358516
282.19,0.0004325084358516
282.22,0.0004325084358516
282.24,0.0004325084358516
282.27,0.0004325084358516
282.29,0.0004325084358516
282.32,0.0004325084358516
282.34,0.0004325084358516
282.37,0.0004325084358516
282.39,0.0004325084358516
282.42,0.0004325084358516
282.44,0.0004325084358516
282.46,0.0004325084358516
282.49,0.0004325084358516
282.51,0.0004325084358516
282.54,0.0004325084358516
282.56,0.0004325084358516
282.59,0.0004325084358516
282.61,0.0004325084358516
282.64,0.0004325084358516
282.66,0.0004325084358516
282.69,0.0004325084358516
282.71,0.0004325084358516
282.74,0.0004325084358516
282.76,0.0004325084358516
282.78,0.0004325084358516
282.81,0.0004325084358516
282.83,0.0004325084358516
282.86,0.0004325084358516
282.88,0.0004325084358516
282.91,0.0004325084358516
282.93,0.0004325084358516
282.96,0.0004325084358516
282.98,0.0004325084358516
283.01,0.0004325084358516
283.03,0.0004325084358516
283.06,0.0004325084358516
283.08,0.0004325084358516
283.11,0.0004325084358516
283.13,0.0004325084358516
283.15,0.0004325084358516
283.18,0.0004325084358516
283.2,0.0004325084358516
283.23,0.0004325084358516
283.25,0.0004325084358516
283.28,0.0004325084358516
283.3,0.0004325084358516
283.33,0.0004325084358516
283.35,0.0004325084358516
283.38,0.0004325084358516
283.4,0.0004325084358516
283.43,0.0004325084358516
283.45,0.0004325084358516
283.47,0.0004325084358516
283.5,0.0004325084358516
283.52,0.0004325084358516
283.55,0.0004325084358516
283.57,0.0004325084358516
283.6,0.0004325084358516
283.62,0.0004325084358516
283.65,0.0004325084358516
283.67,0.0004325084358516
283.7,0.0004325084358516
283.72,0.0004325084358516
283.75,0.0004325084358516
283.77,0.0004325084358516
283.79,0.0004325084358516
283.82,0.0004325084358516
283.84,0.0004325084358516
283.87,0.0004325084358516
283.89,0.0004325084358516
283.92,0.0004325084358516
283.94,0.0004325084358516
283.97,0.0004325084358516
283.99,0.0004325084358516
284.02,0.0004325084358516
284.04,0.0004325084358516
284.07,0.0004325084358516
284.09,0.0004325084358516
284.11,0.0004325084358516
284.14,0.0004325084358516
284.16,0.0004325084358516
284.19,0.0004325084358516
284.21,0.0004325084358516
284.24,0.0004325084358516
284.26,0.0004325084358516
284.29,0.0004325084358516
284.31,0.0004325084358516
284.34,0.0004325084358516
284.36,0.0004325084358516
284.39,0.0004325084358516
284.41,0.0004325084358516
284.43,0.0004325084358516
284.46,0.0004325084358516
284.48,0.0004325084358516
284.51,0.0004325084358516
284.53,0.0004325084358516
284.56,0.0004325084358516
284.58,0.0004325084358516
284.61,0.0004325084358516
284.63,0.0004325084358516
284.66,0.0004325084358516
284.68,0.0004325084358516
284.71,0.0004325084358516
284.73,0.0004325084358516
284.75,0.0004325084358516
284.78,0.0004325084358516
284.8,0.0004325084358516
284.83,0.0004325084358516
284.85,0.0004325084358516
284.88,0.0004325084358516
284.9,0.0004325084358516
284.93,0.0004325084358516
284.95,0.0004325084358516
284.98,0.0004325084358516
285.0,0.0004325084358516
285.03,0.0004325084358516
285.05,0.0004325084358516
285.07,0.0004325084358516
285.1,0.0004325084358516
285.12,0.0004325084358516
285.15,0.0004325084358516
285.17,0.0004325084358516
285.2,0.0004325084358516
285.22,0.0004325084358516
285.25,0.0004325084358516
285.27,0.0004325084358516
285.3,0.0004325084358516
285.32,0.0004325084358516
285.35,0.0004325084358516
285.37,0.0004325084358516
285.39,0.0004325084358516
285.42,0.0004325084358516
285.44,0.0004325084358516
285.47,0.0004325084358516
285.49,0.0004325084358516
285.52,0.0004325084358516
285.54,0.0004325084358516
285.57,0.0004325084358516
285.59,0.0004325084358516
285.62,0.0004325084358516
285.64,0.0004325084358516
285.67,0.0004325084358516
285.69,0.0004325084358516
285.71,0.0004325084358516
285.74,0.0004325084358516
285.76,0.0004325084358516
285.79,0.0004325084358516
285.81,0.0004325084358516
285.84,0.0004325084358516
285.86,0.0004325084358516
285.89,0.0004325084358516
285.91,0.0004325084358516
285.94,0.0004325084358516
285.96,0.0004325084358516
285.99,0.0004325084358516
286.01,0.0004325084358516
286.04,0.0004325084358516
286.06,0.0004325084358516
286.08,0.0004325084358516
286.11,0.0004325084358516
286.13,0.0004325084358516
286.16,0.0004325084358516
286.18,0.0004325084358516
286.21,0.0004325084358516
286.23,0.0004325084358516
286.26,0.0004325084358516
286.28,0.0004325084358516
286.31,0.0004325084358516
286.33,0.0004325084358516
286.36,0.0004325084358516
286.38,0.0004325084358516
286.4,0.0004325084358516
286.43,0.0004325084358516
286.45,0.0004325084358516
286.48,0.0004325084358516
286.5,0.0004325084358516
286.53,0.0004325084358516
286.55,0.0004325084358516
286.58,0.0004325084358516
286.6,0.0004325084358516
286.63,0.0004325084358516
286.65,0.0004325084358516
286.68,0.0004325084358516
286.7,0.0004325084358516
286.72,0.0004325084358516
286.75,0.0004325084358516
286.77,0.0004325084358516
286.8,0.0004325084358516
286.82,0.0004325084358516
286.85,0.0004325084358516
286.87,0.0004325084358516
286.9,0.0004325084358516
286.92,0.0004325084358516
286.95,0.0004325084358516
286.97,0.0004325084358516
287.0,0.0004325084358516
287.02,0.0004325084358516
287.04,0.0004325084358516
287.07,0.0004325084358516
287.09,0.0004325084358516
287.12,0.0004325084358516
287.14,0.0004325084358516
287.17,0.0004325084358516
287.19,0.0004325084358516
287.22,0.0004325084358516
287.24,0.0004325084358516
287.27,0.0004325084358516
287.29,0.0004325084358516
287.32,0.0004325084358516
287.34,0.0004325084358516
287.36,0.0004325084358516
287.39,0.0004325084358516
287.41,0.0004325084358516
287.44,0.0004325084358516
287.46,0.0004325084358516
287.49,0.0004325084358516
287.51,0.0004325084358516
287.54,0.0004325084358516
287.56,0.0004325084358516
287.59,0.0004325084358516
287.61,0.0004325084358516
287.64,0.0004325084358516
287.66,0.0004325084358516
287.68,0.0004325084358516
287.71,0.0004325084358516
287.73,0.0004325084358516
287.76,0.0004325084358516
287.78,0.0004325084358516
287.81,0.0004325084358516
287.83,0.0004325084358516
287.86,0.0004325084358516
287.88,0.0004325084358516
287.91,0.0004325084358516
287.93,0.0004325084358516
287.96,0.0004325084358516
287.98,0.0004325084358516
288.0,0.0004325084358516
288.03,0.0004325084358516
288.05,0.0004325084358516
288.08,0.0004325084358516
288.1,0.0004325084358516
288.13,0.0004325084358516
288.15,0.0004325084358516
288.18,0.0004325084358516
288.2,0.0004325084358516
288.23,0.0004325084358516
288.25,0.0004325084358516
288.28,0.0004325084358516
288.3,0.0004325084358516
288.32,0.0004325084358516
288.35,0.0004325084358516
288.37,0.0004325084358516
288.4,0.0004325084358516
288.42,0.0004325084358516
288.45,0.0004325084358516
288.47,0.0004325084358516
288.5,0.0004325084358516
288.52,0.0004325084358516
288.55,0.0004325084358516
288.57,0.0004325084358516
288.6,0.0004325084358516
288.62,0.0004325084358516
288.65,0.0004325084358516
288.67,0.0004325084358516
288.69,0.0004325084358516
288.72,0.0004325084358516
288.74,0.0004325084358516
288.77,0.0004325084358516
288.79,0.0004325084358516
288.82,0.0004325084358516
288.84,0.0004325084358516
288.87,0.0004325084358516
288.89,0.0004325084358516
288.92,0.0004325084358516
288.94,0.0004325084358516
288.97,0.0004325084358516
288.99,0.0004325084358516
289.01,0.0004325084358516
289.04,0.0004325084358516
289.06,0.0004325084358516
289.09,0.0004325084358516
289.11,0.0004325084358516
289.14,0.0004325084358516
289.16,0.0004325084358516
289.19,0.0004325084358516
289.21,0.0004325084358516
289.24,0.0004325084358516
289.26,0.0004325084358516
289.29,0.0004325084358516
289.31,0.0004325084358516
289.33,0.0004325084358516
289.36,0.0004325084358516
289.38,0.0004325084358516
289.41,0.0004325084358516
289.43,0.0004325084358516
289.46,0.0004325084358516
289.48,0.0004325084358516
289.51,0.0004325084358516
289.53,0.0004325084358516
289.56,0.0004325084358516
289.58,0.0004325084358516
289.61,0.0004325084358516
289.63,0.0004325084358516
289.65,0.0004325084358516
289.68,0.0004325084358516
289.7,0.0004325084358516
289.73,0.0004325084358516
289.75,0.0004325084358516
289.78,0.0004325084358516
289.8,0.0004325084358516
289.83,0.0004325084358516
289.85,0.0004325084358516
289.88,0.0004325084358516
289.9,0.0004325084358516
289.93,0.0004325084358516
289.95,0.0004325084358516
289.97,0.0004325084358516
290.0,0.0004325084358516
290.02,0.0004325084358516
290.05,0.0004325084358516
290.07,0.0004325084358516
290.1,0.0004325084358516
290.12,0.0004325084358516
290.15,0.0004325084358516
290.17,0.0004325084358516
290.2,0.0004325084358516
290.22,0.0004325084358516
290.25,0.0004325084358516
290.27,0.0004325084358516
290.29,0.0004325084358516
290.32,0.0004325084358516
290.34,0.0004325084358516
290.37,0.0004325084358516
290.39,0.0004325084358516
290.42,0.0004325084358516
290.44,0.0004325084358516
290.47,0.0004325084358516
290.49,0.0004325084358516
290.52,0.0004325084358516
290.54,0.0004325084358516
290.57,0.0004325084358516
290.59,0.0004325084358516
290.61,0.0004325084358516
290.64,0.0004325084358516
290.66,0.0004325084358516
290.69,0.0004325084358516
290.71,0.0004325084358516
290.74,0.0004325084358516
290.76,0.0004325084358516
290.79,0.0004325084358516
290.81,0.0004325084358516
290.84,0.0004325084358516
290.86,0.0004325084358516
290.89,0.0004325084358516
290.91,0.0004325084358516
290.93,0.0004325084358516
290.96,0.0004325084358516
290.98,0.0004325084358516
291.01,0.0004325084358516
291.03,0.0004325084358516
291.06,0.0004325084358516
291.08,0.0004325084358516
291.11,0.0004325084358516
291.13,0.0004325084358516
291.16,0.0004325084358516
291.18,0.0004325084358516
291.21,0.0004325084358516
291.23,0.0004325084358516
291.25,0.0004325084358516
291.28,0.0004325084358516
291.3,0.0004325084358516
291.33,0.0004325084358516
291.35,0.0004325084358516
291.38,0.0004325084358516
291.4,0.0004325084358516
291.43,0.0004325084358516
291.45,0.0004325084358516
291.48,0.0004325084358516
291.5,0.0004325084358516
291.53,0.0004325084358516
291.55,0.0004325084358516
291.58,0.0004325084358516
291.6,0.0004325084358516
291.62,0.0004325084358516
291.65,0.0004325084358516
291.67,0.0004325084358516
291.7,0.0004325084358516
291.72,0.0004325084358516
291.75,0.0004325084358516
291.77,0.0004325084358516
291.8,0.0004325084358516
291.82,0.0004325084358516
291.85,0.0004325084358516
291.87,0.0004325084358516
291.9,0.0004325084358516
291.92,0.0004325084358516
291.94,0.0004325084358516
291.97,0.0004325084358516
291.99,0.0004325084358516
292.02,0.0004325084358516
292.04,0.0004325084358516
292.07,0.0004325084358516
292.09,0.0004325084358516
292.12,0.0004325084358516
292.14,0.0004325084358516
292.17,0.0004325084358516
292.19,0.0004325084358516
292.22,0.0004325084358516
292.24,0.0004325084358516
292.26,0.0004325084358516
292.29,0.0004325084358516
292.31,0.0004325084358516
292.34,0.0004325084358516
292.36,0.0004325084358516
292.39,0.0004325084358516
292.41,0.0004325084358516
292.44,0.0004325084358516
292.46,0.0004325084358516
292.49,0.0004325084358516
292.51,0.0004325084358516
292.54,0.0004325084358516
292.56,0.0004325084358516
292.58,0.0004325084358516
292.61,0.0004325084358516
292.63,0.0004325084358516
292.66,0.0004325084358516
292.68,0.0004325084358516
292.71,0.0004325084358516
292.73,0.0004325084358516
292.76,0.0004325084358516
292.78,0.0004325084358516
292.81,0.0004325084358516
292.83,0.0004325084358516
292.86,0.0004325084358516
292.88,0.0004325084358516
292.9,0.0004325084358516
292.93,0.0004325084358516
292.95,0.0004325084358516
292.98,0.0004325084358516
293.0,0.0004325084358516
293.03,0.0004325084358516
293.05,0.0004325084358516
293.08,0.0004325084358516
293.1,0.0004325084358516
293.13,0.0004325084358516
293.15,0.0004325084358516
293.18,0.0004325084358516
293.2,0.0004325084358516
293.22,0.0004325084358516
293.25,0.0004325084358516
293.27,0.0004325084358516
293.3,0.0004325084358516
293.32,0.0004325084358516
293.35,0.0004325084358516
293.37,0.0004325084358516
293.4,0.0004325084358516
293.42,0.0004325084358516
293.45,0.0004325084358516
293.47,0.0004325084358516
293.5,0.0004325084358516
293.52,0.0004325084358516
293.54,0.0004325084358516
293.57,0.0004325084358516
293.59,0.0004325084358516
293.62,0.0004325084358516
293.64,0.0004325084358516
293.67,0.0004325084358516
293.69,0.0004325084358516
293.72,0.0004325084358516
293.74,0.0004325084358516
293.77,0.0004325084358516
293.79,0.0004325084358516
293.82,0.0004325084358516
293.84,0.0004325084358516
293.86,0.0004325084358516
293.89,0.0004325084358516
293.91,0.0004325084358516
293.94,0.0004325084358516
293.96,0.0004325084358516
293.99,0.0004325084358516
294.01,0.0004325084358516
294.04,0.0004325084358516
294.06,0.0004325084358516
294.09,0.0004325084358516
294.11,0.0004325084358516
294.14,0.0004325084358516
294.16,0.0004325084358516
294.19,0.0004325084358516
294.21,0.0004325084358516
294.23,0.0004325084358516
294.26,0.0004325084358516
294.28,0.0004325084358516
294.31,0.0004325084358516
294.33,0.0004325084358516
294.36,0.0004325084358516
294.38,0.0004325084358516
294.41,0.0004325084358516
294.43,0.0004325084358516
294.46,0.0004325084358516
294.48,0.0004325084358516
294.51,0.0004325084358516
294.53,0.0004325084358516
294.55,0.0004325084358516
294.58,0.0004325084358516
294.6,0.0004325084358516
294.63,0.0004325084358516
294.65,0.0004325084358516
294.68,0.0004325084358516
294.7,0.0004325084358516
294.73,0.0004325084358516
294.75,0.0004325084358516
294.78,0.0004325084358516
294.8,0.0004325084358516
294.83,0.0004325084358516
294.85,0.0004325084358516
294.87,0.0004325084358516
294.9,0.0004325084358516
294.92,0.0004325084358516
294.95,0.0004325084358516
294.97,0.0004325084358516
295.0,0.0004325084358516
295.02,0.0004325084358516
295.05,0.0004325084358516
295.07,0.0004325084358516
295.1,0.0004325084358516
295.12,0.0004325084358516
295.15,0.0004325084358516
295.17,0.0004325084358516
295.19,0.0004325084358516
295.22,0.0004325084358516
295.24,0.0004325084358516
295.27,0.0004325084358516
295.29,0.0004325084358516
295.32,0.0004325084358516
295.34,0.0004325084358516
295.37,0.0004325084358516
295.39,0.0004325084358516
295.42,0.0004325084358516
295.44,0.0004325084358516
295.47,0.0004325084358516
295.49,0.0004325084358516
295.51,0.0004325084358516
295.54,0.0004325084358516
295.56,0.0004325084358516
295.59,0.0004325084358516
295.61,0.0004325084358516
295.64,0.0004325084358516
295.66,0.0004325084358516
295.69,0.0004325084358516
295.71,0.0004325084358516
295.74,0.0004325084358516
295.76,0.0004325084358516
295.79,0.0004325084358516
295.81,0.0004325084358516
295.83,0.0004325084358516
295.86,0.0004325084358516
295.88,0.0004325084358516
295.91,0.0004325084358516
295.93,0.0004325084358516
295.96,0.0004325084358516
295.98,0.0004325084358516
296.01,0.0004325084358516
296.03,0.0004325084358516
296.06,0.0004325084358516
296.08,0.0004325084358516
296.11,0.0004325084358516
296.13,0.0004325084358516
296.15,0.0004325084358516
296.18,0.0004325084358516
296.2,0.0004325084358516
296.23,0.0004325084358516
296.25,0.0004325084358516
296.28,0.0004325084358516
296.3,0.0004325084358516
296.33,0.0004325084358516
296.35,0.0004325084358516
296.38,0.0004325084358516
296.4,0.0004325084358516
296.43,0.0004325084358516
296.45,0.0004325084358516
296.47,0.0004325084358516
296.5,0.0004325084358516
296.52,0.0004325084358516
296.55,0.0004325084358516
296.57,0.0004325084358516
296.6,0.0004325084358516
296.62,0.0004325084358516
296.65,0.0004325084358516
296.67,0.0004325084358516
296.7,0.0004325084358516
296.72,0.0004325084358516
296.75,0.0004325084358516
296.77,0.0004325084358516
296.79,0.0004325084358516
296.82,0.0004325084358516
296.84,0.0004325084358516
296.87,0.0004325084358516
296.89,0.0004325084358516
296.92,0.0004325084358516
296.94,0.0004325084358516
296.97,0.0004325084358516
296.99,0.0004325084358516
297.02,0.0004325084358516
297.04,0.0004325084358516
297.07,0.0004325084358516
297.09,0.0004325084358516
297.12,0.0004325084358516
297.14,0.0004325084358516
297.16,0.0004325084358516
297.19,0.0004325084358516
297.21,0.0004325084358516
297.24,0.0004325084358516
297.26,0.0004325084358516
297.29,0.0004325084358516
297.31,0.0004325084358516
297.34,0.0004325084358516
297.36,0.0004325084358516
297.39,0.0004325084358516
297.41,0.0004325084358516
297.44,0.0004325084358516
297.46,0.0004325084358516
297.48,0.0004325084358516
297.51,0.0004325084358516
297.53,0.0004325084358516
