Wavelength (nm),Normalized
237.07,0.0017074979480007
237.1,0.0017074979439848
237.12,0.0017074979412541
237.15,0.0017074979398085
237.17,0.0017074979396482
237.2,0.001707497940773
237.22,0.0017074979326403
237.24,0.0017074978595204
237.27,0.0017074976612113
237.29,0.0017074961845403
237.32,0.0017074929020413
237.34,0.0017074847701999
237.37,0.0017074335505921
237.39,0.0017073511727641
237.42,0.00170694997908
237.44,0.0017064934760107
237.46,0.0017045743734353
237.49,0.0017035327201405
237.51,0.0016990887176963
237.54,0.0017030623413095
237.56,0.0017213868013578
237.59,0.0017464260237292
237.61,0.0018258963111152
237.64,0.0019550135727691
237.66,0.0021957559392775
237.68,0.0025389103906628
237.71,0.0029983028304472
237.73,0.0035398406942879
237.76,0.0040816490152121
237.78,0.0045522659503557
237.81,0.0048923586679752
237.83,0.0049939809361613
237.86,0.0048869284704385
237.88,0.0045414055552824
237.9,0.00407076423966
237.93,0.0035167684498768
237.95,0.0029906893610398
237.98,0.0025379642895624
238.0,0.0021813857526494
238.03,0.001938894502368
238.05,0.0018099292031299
238.08,0.0017325117243483
238.1,0.0017114261567702
238.12,0.0016989570783932
238.15,0.0017027377010889
238.17,0.001703172336437
238.2,0.0017060099146688
238.22,0.0017064914210688
238.25,0.0017069478018201
238.27,0.0017073491178222
238.29,0.0017074318626042
238.32,0.0017074836938018
238.34,0.0017074926818691
238.37,0.0017074970652297
238.39,0.0017074976612112
238.42,0.0017074978595202
238.44,0.0017074979326401
238.47,0.0017074979407727
238.49,0.0017074979432674
238.51,0.0017074979434961
238.54,0.0017074979435551
238.56,0.0017074979435596
238.59,0.0017074979435605
238.61,0.0017074979435606
238.64,0.0017074979435606
238.66,0.0017074979435606
238.69,0.0017074979435606
238.71,0.0017074979435606
238.73,0.0017074979435606
238.76,0.0017074979435606
238.78,0.0017074979435606
238.81,0.0017074979435606
238.83,0.0017074979435606
238.86,0.0017074979435606
238.88,0.0017074979435606
238.91,0.0017074979435606
238.93,0.0017074979435606
238.95,0.0017074979435606
238.98,0.0017074979435606
239.0,0.0017074979435606
239.03,0.0017074979435606
239.05,0.0017074979435606
239.08,0.0017074979435606
239.1,0.0017074979435606
239.13,0.0017074979435606
239.15,0.0017074979435606
239.17,0.0017074979435606
239.2,0.0017074979435606
239.22,0.0017074979435606
239.25,0.0017074979435606
239.27,0.0017074979435606
239.3,0.0017074979435606
239.32,0.0017074979435606
239.35,0.0017074979435606
239.37,0.0017074979435606
239.39,0.0017074979435606
239.42,0.0017074979435606
239.44,0.0017074979435606
239.47,0.0017074979435606
239.49,0.0017074979435606
239.52,0.0017074979435606
239.54,0.0017074979435606
239.56,0.0017074979435606
239.59,0.0017074979435606
239.61,0.0017074979435606
239.64,0.0017074979435606
239.66,0.0017074979435606
239.69,0.0017074979435606
239.71,0.0017074979435606
239.74,0.0017074979435606
239.76,0.0017074979435606
239.78,0.0017074979435606
239.96,0.0017074979435606
239.98,0.0017074979435606
240.0,0.0017074979435606
240.03,0.0017074979435606
240.05,0.0017074979435606
240.08,0.0017074979435606
240.1,0.0017074979435606
240.13,0.0017074979435606
240.15,0.0017074979435606
240.18,0.0017074979435606
240.2,0.0017074979435606
240.22,0.0017074979435606
240.25,0.0017074979435606
240.27,0.0017074979435606
240.3,0.0017074979435606
240.32,0.0017074979435606
240.35,0.0017074979435606
240.37,0.0017074979435606
240.4,0.0017074979435606
240.42,0.0017074979435606
240.44,0.0017074979435606
240.47,0.0017074979435606
240.49,0.0017074979435606
240.52,0.0017074979435606
240.54,0.0017074979435606
240.57,0.0017074979435606
240.59,0.0017074979435606
240.62,0.0017074979435606
240.64,0.0017074979435606
240.66,0.0017074979435606
240.69,0.0017074979435606
240.71,0.0017074979435606
240.74,0.0017074979435606
240.76,0.0017074979435606
240.79,0.0017074979435606
240.81,0.0017074979435606
240.83,0.0017074979435606
240.86,0.0017074979435606
240.88,0.0017074979435606
240.91,0.0017074979435606
240.93,0.0017074979435606
240.96,0.0017074979435606
240.98,0.0017074979435606
241.01,0.0017074979435606
241.03,0.0017074979435606
241.05,0.0017074979435606
241.08,0.0017074979435606
241.1,0.0017074979435606
241.13,0.0017074979435606
241.15,0.0017074979435606
241.18,0.0017074979435606
241.2,0.0017074979435606
241.23,0.0017074979435606
241.25,0.0017074979435606
241.27,0.0017074979435606
241.3,0.0017074979435606
241.32,0.0017074979435606
241.35,0.0017074979435606
241.37,0.0017074979435606
241.4,0.0017074979435606
241.42,0.0017074979435606
241.45,0.0017074979435606
241.47,0.0017074979435606
241.49,0.0017074979435606
241.52,0.0017074979435606
241.54,0.0017074979435606
241.57,0.0017074979435606
241.59,0.0017074979435606
241.62,0.0017074979435606
241.64,0.0017074979435606
241.67,0.0017074979435606
241.69,0.0017074979435606
241.71,0.0017074979435606
241.74,0.0017074979435606
241.76,0.0017074979435606
241.79,0.0017074979435606
241.81,0.0017074979435606
241.84,0.0017074979435606
241.86,0.0017074979435606
241.89,0.0017074979435606
241.91,0.0017074979435606
241.93,0.0017074979435606
241.96,0.0017074979435606
241.98,0.0017074979435606
242.01,0.0017074979435606
242.03,0.0017074979435606
242.06,0.0017074979435606
242.08,0.0017074979435606
242.1,0.0017074979435606
242.13,0.0017074979435606
242.15,0.0017074979435606
242.18,0.0017074979435606
245.08,0.0017074979435606
245.11,0.0017074979435606
245.13,0.0017074979435606
245.16,0.0017074979435606
245.18,0.0017074979435606
245.21,0.0017074979435606
245.23,0.0017074979435606
245.26,0.0017074979435606
245.28,0.0017074979435606
245.3,0.0017074979435606
245.33,0.0017074979435606
245.35,0.0017074979435606
245.38,0.0017074979435606
245.4,0.0017074979435606
245.43,0.0017074979435606
245.45,0.0017074979435606
245.48,0.0017074979435606
245.5,0.0017074979435606
245.52,0.0017074979435606
245.55,0.0017074979435606
245.57,0.0017074979435606
245.6,0.0017074979435606
245.62,0.0017074979435606
245.65,0.0017074979435606
245.67,0.0017074979435606
245.7,0.0017074979435606
245.72,0.0017074979435606
245.74,0.0017074979435606
245.77,0.0017074979435606
245.79,0.0017074979435606
245.82,0.0017074979435606
245.84,0.0017074979435606
245.87,0.0017074979435606
245.89,0.0017074979435606
245.91,0.0017074979435606
245.94,0.0017074979435606
245.96,0.0017074979435606
245.99,0.0017074979435606
246.01,0.0017074979435606
246.04,0.0017074979435606
246.06,0.0017074979435606
246.09,0.0017074979435606
246.11,0.0017074979435606
246.13,0.0017074979435606
246.16,0.0017074979435606
246.18,0.0017074979435606
246.21,0.0017074979435606
246.23,0.0017074979435606
246.26,0.0017074979435606
246.28,0.0017074979435606
246.31,0.0017074979435606
246.33,0.0017074979435606
246.35,0.0017074979435606
246.38,0.0017074979435606
246.4,0.0017074979435606
246.43,0.0017074979435606
246.45,0.0017074979435606
246.48,0.0017074979435606
246.5,0.0017074979435606
246.53,0.0017074979435606
246.55,0.0017074979435606
246.57,0.0017074979435606
246.6,0.0017074979435606
246.62,0.0017074979435606
246.65,0.0017074979435606
246.67,0.0017074979435606
246.7,0.0017074979435606
246.72,0.0017074979435606
246.75,0.0017074979435606
246.77,0.0017074979435606
246.79,0.0017074979435606
246.82,0.0017074979435606
246.84,0.0017074979435606
246.87,0.0017074979435606
246.89,0.0017074979435606
246.92,0.0017074979435606
246.94,0.0017074979435606
246.97,0.0017074979435606
246.99,0.0017074979435606
247.01,0.0017074979435606
247.04,0.0017074979435606
247.06,0.0017074979435606
247.09,0.0017074979435606
247.11,0.0017074979435606
247.14,0.0017074979435606
247.16,0.0017074979435606
247.18,0.0017074979435606
247.21,0.0017074979435606
247.23,0.0017074979435606
247.26,0.0017074979435606
247.28,0.0017074979435606
247.31,0.0017074979435606
247.33,0.0017074979435606
247.36,0.0017074979435606
247.38,0.0017074979435606
247.4,0.0017074979435606
247.43,0.0017074979435606
247.45,0.0017074979435606
247.48,0.0017074979435606
247.5,0.0017074979435606
247.53,0.0017074979435606
247.55,0.0017074979435606
247.58,0.0017074979435606
247.6,0.0017074979435606
247.62,0.0017074979435606
247.65,0.0017074979435606
247.67,0.0017074979435606
247.7,0.0017074979435606
247.72,0.0017074979435606
247.75,0.0017074979435606
247.77,0.0017074979435606
247.8,0.0017074979435606
247.82,0.0017074979435606
247.84,0.0017074979435606
247.87,0.0017074979435606
247.89,0.0017074979435606
247.92,0.0017074979435606
247.94,0.0017074979435606
247.97,0.0017074979435606
247.99,0.0017074979435606
248.02,0.0017074979435606
248.04,0.0017074979435606
248.06,0.0017074979435606
248.09,0.0017074979435606
248.11,0.0017074979435606
248.14,0.0017074979435606
248.16,0.0017074979435606
248.19,0.0017074979435606
248.21,0.0017074979435606
248.24,0.0017074979435606
248.26,0.0017074979435606
248.28,0.0017074979435606
248.31,0.0017074979435606
248.33,0.0017074979435606
248.36,0.0017074979435606
248.38,0.0017074979435606
248.41,0.0017074979435606
248.43,0.0017074979435606
248.45,0.0017074979435606
248.48,0.0017074979435606
248.5,0.0017074979435606
248.53,0.0017074979435606
248.55,0.0017074979435606
248.58,0.0017074979435606
248.6,0.0017074979435606
248.63,0.0017074979435606
248.65,0.0017074979435606
248.67,0.0017074979435606
248.7,0.0017074979435606
248.72,0.0017074979435606
248.75,0.0017074979435606
248.77,0.0017074979435606
248.8,0.0017074979435606
248.82,0.0017074979435606
248.85,0.0017074979435606
248.87,0.0017074979435606
248.89,0.0017074979435606
248.92,0.0017074979435606
248.94,0.0017074979435606
248.97,0.0017074979435606
248.99,0.0017074979435606
249.02,0.0017074979435606
249.04,0.0017074979435606
249.07,0.0017074979435606
249.09,0.0017074979435606
249.11,0.0017074979435606
249.14,0.0017074979435606
249.16,0.0017074979435606
249.19,0.0017074979435606
249.21,0.0017074979435606
249.24,0.0017074979435606
249.26,0.0017074979435606
249.29,0.0017074979435606
249.31,0.0017074979435606
249.33,0.0017074979435606
249.36,0.0017074979435606
249.38,0.0017074979435606
249.41,0.0017074979435606
249.43,0.0017074979435606
249.46,0.0017074979435606
249.48,0.0017074979435606
249.51,0.0017074979435606
249.53,0.0017074979435606
249.55,0.0017074979435606
249.58,0.0017074979435606
249.6,0.0017074979435606
249.63,0.0017074979435606
249.65,0.0017074979435606
249.68,0.0017074979435606
249.7,0.0017074979435606
249.72,0.0017074979435606
249.75,0.0017074979435606
249.77,0.0017074979435606
249.8,0.0017074979435606
249.82,0.0017074979435606
249.85,0.0017074979435606
249.87,0.0017074979435606
249.9,0.0017074979435606
249.92,0.0017074979435606
249.94,0.0017074979435606
249.97,0.0017074979435606
249.99,0.0017074979435606
250.68,0.0017074979435606
250.7,0.0017074979435606
250.73,0.0017074979435606
250.75,0.0017074979435606
250.78,0.0017074979435606
250.8,0.0017074979435606
250.82,0.0017074979435606
250.85,0.0017074979435606
250.87,0.0017074979435606
250.9,0.0017074979435606
250.92,0.0017074979435606
250.95,0.0017074979435606
250.97,0.0017074979435606
250.99,0.0017074979435606
251.02,0.0017074979435606
251.04,0.0017074979435606
251.07,0.0017074979435606
251.09,0.0017074979435606
251.12,0.0017074979435606
251.14,0.0017074979435606
251.17,0.0017074979435606
251.19,0.0017074979435606
251.21,0.0017074979435606
251.24,0.0017074979435606
251.26,0.0017074979435606
251.29,0.0017074979435606
251.31,0.0017074979435606
251.34,0.0017074979435606
251.36,0.0017074979435606
251.39,0.0017074979435606
251.41,0.0017074979435606
251.43,0.0017074979435606
251.46,0.0017074979435606
251.48,0.0017074979435606
251.51,0.0017074979435606
251.53,0.0017074979435606
251.56,0.0017074979435606
251.58,0.0017074979435606
251.61,0.0017074979435606
251.63,0.0017074979435606
251.65,0.0017074979435606
251.68,0.0017074979435606
251.7,0.0017074979435606
251.73,0.0017074979435606
251.75,0.0017074979435606
251.78,0.0017074979435606
251.8,0.0017074979435606
251.83,0.0017074979435606
251.85,0.0017074979435606
251.87,0.0017074979435606
251.9,0.0017074979435606
251.92,0.0017074979435606
251.95,0.0017074979435606
251.97,0.0017074979435606
252.0,0.0017074979435606
252.02,0.0017074979435606
252.05,0.0017074979435606
252.07,0.0017074979435606
252.09,0.0017074979435606
252.12,0.0017074979435606
252.14,0.0017074979435606
252.17,0.0017074979435606
252.19,0.0017074979435606
252.22,0.0017074979435606
252.24,0.0017074979435606
252.26,0.0017074979435606
252.29,0.0017074979435603
252.83,0.0017074979435557
252.85,0.0017074979435339
252.88,0.0017074979432339
252.9,0.0017074979420169
252.92,0.0017074979278672
252.95,0.001707497878489
252.97,0.0017074973934882
253.0,0.0017074959472635
253.02,0.0017074911473419
253.05,0.0017074517308018
253.07,0.0017073584453497
253.1,0.0017067400928094
253.12,0.0017055322949204
253.14,0.0016986833563114
253.17,0.001687968428334
253.19,0.0016353659141989
253.22,0.0015743691804104
253.24,0.0015051208030887
253.27,0.0010824109380751
253.29,0.0009353420909992
253.32,3.815806458235117e-05
253.34,0.0012764696917865
253.36,0.0027288742707556
253.39,0.0129543330245856
253.41,0.035253078488632
253.44,0.067567158386908
253.46,0.1269896908987389
253.49,0.2105901474669684
253.51,0.3279214064018376
253.53,0.4711952844606366
253.56,0.6269880119536937
253.58,0.7821159281197622
253.61,0.9037068057739456
253.63,0.9795528128164068
253.66,1.0
253.68,0.9482654552748008
253.71,0.8488080627800604
253.73,0.7046531628760273
253.75,0.5499781695126599
253.78,0.3979391768871797
253.8,0.2670344687462532
253.83,0.1663925839382296
253.85,0.0901588663326681
253.88,0.0419013258511524
253.9,0.01908008733423
253.93,0.005106443208475
253.95,0.0020991432111726
253.97,0.0
254.0,0.0008450935322431
254.02,0.0009239766604039
254.05,0.0014433730719326
254.07,0.0015216141723239
254.1,0.001602345269194
254.12,0.001677906169708
254.15,0.0016936854469988
254.17,0.0017042980670805
254.19,0.0017062268897495
254.22,0.0017072551317772
254.24,0.0017074152273837
254.27,0.0017074853443496
254.29,0.0017074941338915
254.32,0.001707496864892
254.34,0.0017074978111383
254.37,0.0017074979107689
254.39,0.0017074979402157
254.41,0.0017074979428339
254.44,0.001707497943499
254.46,0.0017074979435489
254.49,0.0017074979435598
254.51,0.0017074979435605
254.54,0.0017074979435606
254.56,0.0017074979435606
254.59,0.0017074979435606
254.61,0.0017074979435606
254.63,0.0017074979435606
254.66,0.0017074979435606
254.68,0.0017074979435606
254.71,0.0017074979435606
254.73,0.0017074979435606
254.76,0.0017074979435606
254.78,0.0017074979435606
254.8,0.0017074979435606
254.83,0.0017074979435606
254.85,0.0017074979435606
254.88,0.0017074979435606
254.9,0.0017074979435606
254.93,0.0017074979435606
254.95,0.0017074979435606
254.98,0.0017074979435606
255.0,0.0017074979435606
255.02,0.0017074979435606
255.05,0.0017074979435606
255.07,0.0017074979435606
255.1,0.0017074979435606
255.12,0.0017074979435606
255.15,0.0017074979435606
255.17,0.0017074979435606
255.2,0.0017074979435606
255.22,0.0017074979435606
255.24,0.0017074979435606
255.27,0.0017074979435606
255.29,0.0017074979435606
255.32,0.0017074979435606
255.34,0.0017074979435606
255.37,0.0017074979435606
255.39,0.0017074979435606
255.42,0.0017074979435606
255.44,0.0017074979435606
255.46,0.0017074979435606
255.49,0.0017074979435606
255.51,0.0017074979435606
255.54,0.0017074979435606
255.56,0.0017074979435606
255.59,0.0017074979435606
255.61,0.0017074979435606
255.64,0.0017074979435606
255.66,0.0017074979435606
255.68,0.0017074979435606
255.71,0.0017074979435606
255.73,0.0017074979435606
255.76,0.0017074979435606
255.78,0.0017074979435606
255.81,0.0017074979435606
255.83,0.0017074979435606
255.86,0.0017074979435606
255.88,0.0017074979435606
255.9,0.0017074979435606
255.93,0.0017074979435606
255.95,0.0017074979435606
255.98,0.0017074979435606
256.0,0.0017074979435606
256.03,0.0017074979435606
256.05,0.0017074979435606
256.07,0.0017074979435606
256.1,0.0017074979435606
256.12,0.0017074979435606
256.15,0.0017074979435606
256.17,0.0017074979435606
256.2,0.0017074979435606
256.22,0.0017074979435606
256.25,0.0017074979435606
256.27,0.0017074979435606
256.29,0.0017074979435606
256.32,0.0017074979435606
256.34,0.0017074979435606
256.37,0.0017074979435606
256.39,0.0017074979435606
256.42,0.0017074979435606
256.44,0.0017074979435606
256.47,0.0017074979435606
256.49,0.0017074979435606
256.51,0.0017074979435606
256.54,0.0017074979435606
256.56,0.0017074979435606
256.59,0.0017074979435606
256.66,0.0017074979435606
256.69,0.0017074979435606
256.71,0.0017074979435606
256.73,0.0017074979435606
256.76,0.0017074979435606
256.78,0.0017074979435606
256.81,0.0017074979435606
256.83,0.0017074979435606
256.86,0.0017074979435606
256.88,0.0017074979435606
256.91,0.0017074979435606
256.93,0.0017074979435606
256.95,0.0017074979435606
256.98,0.0017074979435606
257.0,0.0017074979435606
257.03,0.0017074979435606
257.05,0.0017074979435606
257.08,0.0017074979435606
257.1,0.0017074979435606
257.13,0.0017074979435606
257.15,0.0017074979435606
257.17,0.0017074979435606
257.2,0.0017074979435606
257.22,0.0017074979435606
257.25,0.0017074979435606
257.27,0.0017074979435606
257.3,0.0017074979435606
257.32,0.0017074979435606
257.34,0.0017074979435606
257.37,0.0017074979435606
257.39,0.0017074979435606
257.42,0.0017074979435606
257.44,0.0017074979435606
257.47,0.0017074979435606
257.49,0.0017074979435606
257.52,0.0017074979435606
257.54,0.0017074979435606
257.56,0.0017074979435606
257.59,0.0017074979435606
257.61,0.0017074979435606
257.64,0.0017074979435606
257.66,0.0017074979435606
257.69,0.0017074979435606
257.71,0.0017074979435606
257.74,0.0017074979435606
257.76,0.0017074979435606
257.78,0.0017074979435606
257.81,0.0017074979435606
257.83,0.0017074979435606
257.86,0.0017074979435606
257.88,0.0017074979435606
257.91,0.0017074979435606
257.93,0.0017074979435606
257.96,0.0017074979435606
257.98,0.0017074979435606
258.0,0.0017074979435606
258.03,0.0017074979435606
258.05,0.0017074979435606
258.08,0.0017074979435606
258.1,0.0017074979435606
258.13,0.0017074979435606
258.15,0.0017074979435606
258.18,0.0017074979435606
258.2,0.0017074979435606
258.22,0.0017074979435606
258.25,0.0017074979435606
258.27,0.0017074979435606
258.3,0.0017074979435606
259.01,0.0017074979435606
259.03,0.0017074979435606
259.05,0.0017074979435606
259.08,0.0017074979435606
259.1,0.0017074979435606
259.13,0.0017074979435606
259.15,0.0017074979435606
259.18,0.0017074979435606
259.2,0.0017074979435606
259.23,0.0017074979435606
259.25,0.0017074979435606
259.27,0.0017074979435606
259.3,0.0017074979435606
259.32,0.0017074979435606
259.35,0.0017074979435606
259.37,0.0017074979435606
259.4,0.0017074979435606
259.42,0.0017074979435606
259.45,0.0017074979435606
259.47,0.0017074979435606
259.49,0.0017074979435606
259.52,0.0017074979435606
259.54,0.0017074979435606
259.57,0.0017074979435606
259.59,0.0017074979435606
259.62,0.0017074979435606
259.64,0.0017074979435606
259.67,0.0017074979435606
259.69,0.0017074979435606
259.71,0.0017074979435606
259.74,0.0017074979435606
259.76,0.0017074979435606
259.79,0.0017074979435606
259.81,0.0017074979435606
259.84,0.0017074979435606
259.86,0.0017074979435606
259.88,0.0017074979435606
259.91,0.0017074979435606
259.93,0.0017074979435606
259.96,0.0017074979435606
259.98,0.0017074979435606
260.01,0.0017074979435606
260.03,0.0017074979435606
260.06,0.0017074979435606
260.08,0.0017074979435606
260.1,0.0017074979435606
260.13,0.0017074979435606
260.15,0.0017074979435606
260.18,0.0017074979435606
260.2,0.0017074979435606
260.23,0.0017074979435606
260.25,0.0017074979435606
260.28,0.0017074979435606
260.3,0.0017074979435606
260.32,0.0017074979435606
260.35,0.0017074979435606
260.37,0.0017074979435606
260.4,0.0017074979435606
260.42,0.0017074979435606
260.45,0.0017074979435606
260.47,0.0017074979435606
260.5,0.0017074979435606
260.52,0.0017074979435606
260.54,0.0017074979435606
260.57,0.0017074979435606
260.59,0.0017074979435606
260.62,0.0017074979435606
260.64,0.0017074979435606
260.67,0.0017074979435606
260.69,0.0017074979435606
260.72,0.0017074979435606
260.74,0.0017074979435606
260.76,0.0017074979435606
260.79,0.0017074979435606
260.81,0.0017074979435606
260.84,0.0017074979435606
260.86,0.0017074979435606
