Wavelength (nm),Normalized
460.81,0.0004482968056919
460.85,0.0004482954086763
460.89,0.000448294468558
460.93,0.0004482939853369
460.97,0.0004482939590131
461.01,0.0004482943895865
461.05,0.0004482917085307
461.09,0.0004482817161525
461.13,0.0004482467594541
461.18,0.0004481323384677
461.22,0.0004477826613198
461.26,0.0004467884787182
461.3,0.0004441651503979
461.34,0.0004377811406031
461.38,0.0004235389366025
461.42,0.000394918383477
461.46,0.0003441888521038
461.5,0.000270200269065
461.54,0.000198277443115
461.58,0.0002265048676478
461.62,0.0006054461013958
461.66,0.0018646855845666
461.7,0.0049673145168643
461.74,0.0114390476816413
461.78,0.0234528463785724
461.82,0.0436248174213398
461.86,0.0746439791622307
461.9,0.1185222758685543
461.94,0.1756892407337635
461.98,0.2442220120269935
462.02,0.3193614605223967
462.06,0.3937653645092378
462.1,0.4585487828327246
462.14,0.5049486444384388
462.18,0.5261849727042089
462.22,0.5190141515551403
462.26,0.4845375188234055
462.3,0.427926329201747
462.34,0.357173586618889
462.38,0.2817207807431935
462.42,0.2088824053781964
462.46,0.1451127806544643
462.5,0.0939659402284421
462.54,0.0562401595670596
462.59,0.0306463357781111
462.63,0.0147681899372258
462.67,0.0058810593758999
462.71,0.0015743708958808
462.75,4.118006019758065e-06
462.79,0.0
462.83,0.0001062903109321
462.87,0.0009956652221433
462.91,0.0033378978227168
462.95,0.0084460372098631
462.99,0.0183180140764061
463.03,0.0355996999090049
463.07,0.0632333345119982
463.11,0.1038558441478577
463.15,0.1588806840516801
463.19,0.227545300170976
463.23,0.306236757636531
463.27,0.3883242889109565
463.31,0.4648502471554003
463.35,0.5260442741652006
463.39,0.5632852328267527
463.43,0.5710337187091482
463.47,0.5480902481700771
463.51,0.4979416284177116
463.55,0.4278753116827244
463.59,0.3473492367797456
463.63,0.2659645118660252
463.67,0.191642327420865
463.71,0.1295362673156205
463.75,0.0817814627647882
463.79,0.0479413159068103
463.83,0.0258798659777554
463.87,0.0126786912625466
463.91,0.0055162377644432
463.95,0.0020530847488933
463.99,0.0006280894562317
464.04,0.0001855072145269
464.08,0.0001423910225528
464.12,0.0002203844041027
464.16,0.0003083596332533
464.2,0.0003766862384968
464.24,0.0004257902975623
464.28,0.0004388587373829
464.32,0.0004446360292473
464.36,0.0004469746283569
464.4,0.0004478508645795
464.44,0.0004481553429507
464.48,0.000448254034702
464.52,0.0004482838838034
464.56,0.000448292327382
464.6,0.0004482945654074
464.64,0.0004482951212803
464.68,0.000448295250878
464.72,0.0004482952792352
464.76,0.0004482952850637
464.8,0.0004482952861893
464.84,0.0004482952863937
464.88,0.0004482952864287
464.92,0.0004482952864343
464.96,0.0004482952864352
465.0,0.0004482952864353
465.04,0.0004482952864353
465.08,0.0004482952864353
465.12,0.0004482952864353
465.16,0.0004482952864353
465.2,0.0004482952864353
465.24,0.0004482952864353
465.28,0.0004482952864353
465.32,0.0004482952864353
465.36,0.0004482952864353
465.4,0.0004482952864353
465.45,0.0004482952864353
465.49,0.0004482952864353
465.53,0.0004482952864353
465.57,0.0004482952864353
465.61,0.0004482952864353
465.65,0.0004482952864353
465.69,0.0004482952864353
465.73,0.0004482952864353
465.77,0.0004482952864353
465.81,0.0004482952864353
465.85,0.0004482952864353
465.89,0.0004482952864353
465.93,0.0004482952864353
465.97,0.0004482952864353
466.01,0.0004482952864353
466.05,0.0004482952864352
466.09,0.0004482952864352
466.13,0.0004482952864352
466.17,0.0004482952864352
466.21,0.0004482952864352
466.25,0.0004482952864352
466.29,0.0004482952864352
466.33,0.0004482952864352
466.37,0.0004482952864352
466.41,0.0004482952864352
466.45,0.0004482952864352
466.49,0.0004482952864352
466.53,0.0004482952864352
466.57,0.0004482952864352
466.61,0.0004482952864352
466.65,0.0004482952864352
466.69,0.0004482952864352
466.73,0.0004482952864352
466.77,0.0004482952864351
466.81,0.0004482952864347
466.86,0.0004482952864317
466.9,0.0004482952864129
466.94,0.0004482952863026
466.98,0.0004482952856894
467.02,0.000448295282484
467.06,0.000448295266715
467.1,0.0004482951937323
467.14,0.0004482948762718
467.18,0.0004482935788072
467.22,0.0004482885960147
467.26,0.0004482706510116
467.3,0.0004482100849654
467.34,0.0004480187538366
467.38,0.000447454425363
467.42,0.0004459031362154
467.46,0.0004419522816361
467.5,0.0004326509410906
467.54,0.0004126724442702
467.58,0.0003740619104959
467.62,0.0003093959328083
467.66,0.0002228044933265
467.7,0.0001597319925727
467.74,0.0002685539506557
467.78,0.000902549785137
467.82,0.00278074492313
467.86,0.0071654304504106
467.9,0.0160263913122591
467.94,0.0320596047878244
467.98,0.0584970419173114
468.02,0.0985493426985209
468.06,0.1529711532397159
468.1,0.2262261426981696
468.14,0.3146404182766697
468.18,0.4109829993337615
468.22,0.5050576800867175
468.27,0.5851330849864566
468.31,0.6401084653502005
468.35,0.6618032649528368
468.39,0.646781465327103
468.43,0.5971329545280257
468.47,0.5199722742890702
468.51,0.4297884457682583
468.55,0.3356243356512399
468.59,0.2471155060789639
468.63,0.1710979385554701
468.67,0.1109917606203467
468.71,0.0671162870359277
468.75,0.0375564125644646
468.79,0.019234815136487
468.83,0.0088678610384908
468.87,0.0035796063365607
468.91,0.0012176789146414
468.95,0.0003570014905717
468.99,0.0001614389335213
469.03,0.0002014687522774
469.07,0.0002890406387071
469.11,0.0003605416548754
469.15,0.0004051215712475
469.19,0.0004289341669248
469.23,0.0004402853433947
469.27,0.0004452223308782
469.31,0.0004471963214998
469.35,0.0004479278968142
469.39,0.000448180228383
469.43,0.0004482614890244
469.47,0.000448285963624
469.51,0.0004482928699986
469.55,0.0004482946971671
469.59,0.0004482951511973
469.63,0.0004482952572372
469.68,0.0004482952804949
469.72,0.0004482952852961
469.76,0.0004482952862289
469.8,0.0004482952863997
469.84,0.0004482952864294
469.88,0.0004482952864347
469.92,0.0004482952864351
469.96,0.0004482952864352
470.0,0.0004482952864352
470.04,0.0004482952864352
470.08,0.0004482952864352
470.12,0.0004482952864352
470.16,0.0004482952864352
470.2,0.0004482952864352
470.24,0.0004482952864352
470.28,0.0004482952864352
470.32,0.0004482952864351
470.36,0.0004482952864349
470.4,0.0004482952864336
470.44,0.0004482952864255
470.48,0.0004482952863787
470.52,0.0004482952861219
470.56,0.0004482952847934
470.6,0.0004482952783268
470.64,0.0004482952486552
470.68,0.0004482951206408
470.72,0.0004482946010573
470.76,0.0004482926193603
470.8,0.0004482855177041
470.84,0.000448261672288
470.88,0.000448138015402
470.92,0.0004478331426553
470.96,0.0004470496500483
471.0,0.0004451143889986
471.04,0.0004406651634864
471.09,0.0004313291681029
471.13,0.0004137393726801
471.17,0.0003851551059778
471.21,0.0003492896327514
471.25,0.0003297165028304
471.29,0.0003979802168794
471.33,0.0007222121483593
471.37,0.0016310397375867
471.41,0.0036961105835792
471.45,0.007792881190182
471.49,0.0151100466645121
471.53,0.0270613749813454
471.57,0.0450164632389995
471.61,0.0699274552842198
471.65,0.1019001092900495
471.69,0.1397589976326773
471.73,0.1808495827105535
471.77,0.2212291940491189
471.81,0.2561952060406792
471.85,0.2811396843381835
471.89,0.2925274809183497
471.93,0.2886867539705905
471.97,0.2701834090332652
472.01,0.2396941500192155
472.05,0.2014175814771283
472.09,0.1601246421590036
472.13,0.1202244582323827
472.17,0.0850710403624255
472.21,0.0565679139539531
472.25,0.0352113582146551
472.29,0.0204174856465527
472.33,0.0109672863954588
472.37,0.0054234099472796
472.41,0.0024670042022329
472.45,0.0010641634616683
472.49,0.0004990739931374
472.54,0.0003297657546399
472.58,0.000318697104899
472.62,0.0003531235521319
472.66,0.0003901559554767
472.7,0.0004185823725201
472.74,0.0004389604033931
472.78,0.0004443630648453
472.82,0.0004467585755025
472.86,0.0004477352351945
472.9,0.0004481044295729
472.94,0.0004482343617121
472.98,0.0004482770282946
473.02,0.0004482901435808
473.06,0.0004482939240434
473.1,0.0004482949467773
473.14,0.0004482952066657
473.18,0.0004482952687974
473.22,0.0004482952827583
473.26,0.0004482952857127
473.3,0.0004482952863013
473.34,0.0004482952864118
473.38,0.0004482952864313
473.42,0.0004482952864346
473.46,0.0004482952864352
473.5,0.0004482952864352
473.54,0.0004482952864352
473.58,0.0004482952864352
473.62,0.0004482952864352
473.66,0.0004482952864352
473.7,0.0004482952864352
473.74,0.0004482952864352
473.78,0.0004482952864352
473.82,0.0004482952864353
478.26,0.0004482952864353
478.3,0.0004482952864353
478.34,0.0004482952864353
478.38,0.0004482952864353
478.42,0.0004482952864353
478.46,0.0004482952864353
478.5,0.0004482952864353
478.54,0.0004482952864353
478.58,0.0004482952864353
478.62,0.0004482952864353
478.66,0.0004482952864353
478.7,0.0004482952864353
478.74,0.0004482952864353
478.78,0.0004482952864353
478.82,0.0004482952864353
478.86,0.0004482952864353
478.9,0.0004482952864353
478.94,0.0004482952864353
478.98,0.0004482952864353
479.02,0.0004482952864353
479.06,0.0004482952864353
479.1,0.0004482952864353
479.14,0.0004482952864353
479.18,0.0004482952864353
479.22,0.0004482952864353
479.26,0.0004482952864353
479.3,0.0004482952864353
479.34,0.0004482952864353
479.38,0.0004482952864353
479.42,0.0004482952864353
479.46,0.0004482952864353
479.5,0.0004482952864353
479.54,0.0004482952864353
479.59,0.0004482952864353
479.63,0.0004482952864353
479.67,0.0004482952864353
479.71,0.0004482952864353
479.75,0.0004482952864353
479.79,0.0004482952864353
479.83,0.0004482952864353
479.87,0.0004482952864353
479.91,0.0004482952864353
479.95,0.0004482952864353
479.99,0.0004482952864353
480.03,0.0004482952864353
480.07,0.0004482952864353
480.11,0.0004482952864353
480.15,0.0004482952864353
480.19,0.0004482952864353
480.23,0.0004482952864353
480.27,0.0004482952864353
480.31,0.0004482952864353
480.35,0.0004482952864353
480.39,0.0004482952864353
480.43,0.0004482952864353
480.47,0.0004482952864353
480.51,0.0004482952864353
480.55,0.0004482952864353
480.59,0.0004482952864353
480.63,0.0004482952864353
480.67,0.0004482952864353
480.71,0.0004482952864353
480.75,0.0004482952864353
480.79,0.0004482952864353
480.83,0.0004482952864353
480.87,0.0004482952864353
480.91,0.0004482952864353
480.95,0.0004482952864353
480.99,0.0004482952864353
481.04,0.0004482952864353
481.08,0.0004482952864353
481.12,0.0004482952864353
481.16,0.0004482952864353
481.2,0.0004482952864353
481.24,0.0004482952864353
481.28,0.0004482952864353
481.32,0.0004482952864353
481.36,0.0004482952864353
481.4,0.0004482952864353
481.44,0.0004482952864353
481.48,0.0004482952864353
481.52,0.0004482952864353
481.56,0.0004482952864353
481.6,0.0004482952864353
481.64,0.0004482952864353
481.68,0.0004482952864353
481.72,0.0004482952864353
481.76,0.0004482952864353
481.8,0.0004482952864353
481.84,0.0004482952864353
481.88,0.0004482952864353
481.92,0.0004482952864353
481.96,0.0004482952864353
482.0,0.0004482952864353
482.04,0.0004482952864353
482.08,0.0004482952864353
482.12,0.0004482952864353
482.16,0.0004482952864353
482.2,0.0004482952864353
482.24,0.0004482952864353
482.28,0.0004482952864353
482.32,0.0004482952864353
482.36,0.0004482952864353
482.4,0.0004482952864353
482.45,0.0004482952864353
482.49,0.0004482952864353
482.53,0.0004482952864353
482.57,0.0004482952864353
482.61,0.0004482952864353
482.65,0.0004482952864353
482.69,0.0004482952864353
482.73,0.0004482952864353
482.77,0.0004482952864353
482.81,0.0004482952864353
482.85,0.0004482952864353
482.89,0.0004482952864353
482.93,0.0004482952864353
482.97,0.0004482952864353
483.01,0.0004482952864353
483.05,0.0004482952864353
483.09,0.0004482952864353
483.13,0.0004482952864353
483.17,0.0004482952864353
483.21,0.0004482952864353
483.25,0.0004482952864353
483.29,0.0004482952864353
483.33,0.0004482952864353
483.37,0.0004482952864353
483.41,0.0004482952864353
483.45,0.0004482952864353
483.49,0.0004482952864353
483.53,0.0004482952864353
483.57,0.0004482952864353
483.61,0.0004482952864353
483.65,0.0004482952864353
483.69,0.0004482952864353
483.73,0.0004482952864353
483.77,0.0004482952864353
483.81,0.0004482952864353
483.86,0.0004482952864353
483.9,0.0004482952864353
483.94,0.0004482952864353
483.98,0.0004482952864353
484.42,0.0004482952864353
484.46,0.0004482952864353
484.5,0.0004482952864353
484.54,0.0004482952864353
484.58,0.0004482952864353
484.62,0.0004482952864353
484.66,0.0004482952864353
484.7,0.0004482952864353
484.74,0.0004482952864353
484.78,0.0004482952864353
484.82,0.0004482952864353
484.86,0.0004482952864353
484.9,0.0004482952864353
484.94,0.0004482952864353
484.98,0.0004482952864353
485.02,0.0004482952864353
485.06,0.0004482952864353
485.1,0.0004482952864353
485.14,0.0004482952864353
485.18,0.0004482952864353
485.22,0.0004482952864353
485.27,0.0004482952864353
485.31,0.0004482952864353
485.35,0.0004482952864353
485.39,0.0004482952864353
485.43,0.0004482952864353
485.47,0.0004482952864353
485.51,0.0004482952864353
485.55,0.0004482952864353
485.59,0.0004482952864353
485.63,0.0004482952864353
485.67,0.0004482952864353
485.71,0.0004482952864353
485.75,0.0004482952864353
485.79,0.0004482952864353
485.83,0.0004482952864353
485.87,0.0004482952864353
485.91,0.0004482952864353
485.95,0.0004482952864353
485.99,0.0004482952864353
486.03,0.0004482952864353
486.07,0.0004482952864353
486.11,0.0004482952864353
486.15,0.0004482952864353
486.19,0.0004482952864353
486.23,0.0004482952864353
486.27,0.0004482952864354
486.31,0.0004482952864354
486.35,0.0004482952864354
486.39,0.0004482952864354
486.43,0.0004482952864354
486.47,0.0004482952864354
486.51,0.0004482952864354
486.55,0.0004482952864354
486.59,0.0004482952864354
486.63,0.0004482952864354
486.68,0.0004482952864354
486.72,0.0004482952864354
486.76,0.0004482952864352
486.8,0.0004482952864344
486.84,0.0004482952864294
486.88,0.0004482952864006
486.92,0.000448295286244
486.96,0.0004482952854359
487.0,0.0004482952814919
487.04,0.000448295263287
487.08,0.0004482951839024
487.12,0.0004482948569236
487.16,0.0004482935847168
487.2,0.0004482889172381
487.24,0.0004482727660624
487.28,0.0004482201673013
487.32,0.0004480589495432
487.36,0.0004475953175538
487.4,0.0004463467049647
487.44,0.0004432081012878
487.48,0.0004358896475415
487.52,0.0004201873538405
487.56,0.0003896064413868
487.6,0.0003371311732158
487.64,0.0002627339681724
487.68,0.0001948978513964
487.72,0.0002350415353068
487.76,0.0006455598313879
487.8,0.0019844931358696
487.84,0.0052931193481968
487.88,0.0105144741139762
487.92,0.0237674373304457
487.96,0.0485949898801375
488.0,0.0889561731417644
488.04,0.1484426140487258
488.09,0.2291394946902797
488.13,0.3303895721545485
488.17,0.447774660660747
488.21,0.5726966610511708
488.25,0.6928942104019954
488.29,0.7940642384048024
488.33,0.866732174076204
488.37,0.8997885522873473
488.41,0.8886340178703891
488.45,0.834841420346764
488.49,0.7458007502970364
488.53,0.6331202091346745
488.57,0.5102389095051522
488.61,0.3898487976172815
488.65,0.2818654142657319
488.69,0.1923782608522179
488.73,0.1235349003938534
488.77,0.0742960808625572
488.81,0.041578243926298
488.85,0.0214362688969348
488.89,0.0100106118269791
488.93,0.0040910353681078
488.97,0.0013511658184855
489.01,0.0002998274427361
489.05,0.0001664383644129
489.09,0.0007820688254608
489.13,0.0025207024059075
489.17,0.0063319512939086
489.21,0.0137909802453943
489.25,0.0271364357072924
489.29,0.0491602365375337
489.33,0.0808328823659186
489.37,0.1293653334613027
489.41,0.1953592167764857
489.45,0.2769805897694747
489.49,0.3693322052925199
489.54,0.4645520120083252
489.58,0.552578645953499
489.62,0.6226812926527049
489.66,0.6653754063968629
489.7,0.6743526595199312
489.74,0.6477681853250591
489.78,0.5937067735195888
489.82,0.5174271177907488
489.86,0.4284619902736724
489.9,0.336707188211946
489.94,0.2507363543830794
489.98,0.1765709744560269
490.02,0.1172757874753098
490.06,0.073190458016343
490.1,0.0427059118314046
490.14,0.023133437359656
490.18,0.0115277097239153
490.22,0.0052204653679903
490.26,0.0021245038534836
490.3,0.0007996824065641
490.34,0.0003452398980096
490.38,0.0002590712900783
490.42,0.0002951133407032
490.46,0.0003516221251239
490.5,0.0003952942867113
490.54,0.0004221544741339
490.58,0.0004364517569646
490.62,0.0004433188458564
490.66,0.0004463446187275
490.7,0.0004475787067495
490.74,0.000448047967295
490.78,0.0004482149180274
490.82,0.0004482706752478
490.86,0.000448288171979
490.9,0.000448293344778
490.95,0.0004482947851192
490.99,0.0004482951635785
491.03,0.0004482952563288
491.07,0.0004482952720883
491.11,0.0004482952485018
491.15,0.0004482951282117
491.19,0.0004482946402406
491.23,0.0004482927873504
491.27,0.0004482861419238
491.31,0.0004482636887501
491.35,0.0004481921591719
491.39,0.000447977576994
491.43,0.0004473735557659
491.47,0.0004457804670867
491.51,0.0004418631791914
491.55,0.0004329230125482
491.59,0.0004141726659562
491.63,0.0003786717057699
491.67,0.0003197607037225
491.71,0.00024118600065
491.75,0.0001829119487586
491.79,0.0002737892174642
491.83,0.0008311389394366
491.87,0.0025142786825616
491.91,0.0065229986335175
491.95,0.0148162164112093
491.99,0.0302771377786348
492.03,0.056650532593615
492.07,0.0982326726111639
492.11,0.1591498506518182
492.15,0.2398850653538537
492.19,0.3466715960113836
492.23,0.474450463078013
492.27,0.6137797650847777
492.31,0.751127391083591
492.36,0.8708570434393265
492.4,0.9577735087171966
492.44,1.0
492.48,0.9913933674187098
492.52,0.9328703248689458
492.56,0.8321786718987673
492.6,0.7081306038969808
492.64,0.5725001406527834
492.68,0.43926178134984
492.72,0.3192538432984138
492.76,0.2192930906411194
492.8,0.1419178394107232
492.84,0.0861714493554625
492.88,0.0487916361064864
492.92,0.0255376834704373
492.96,0.0122005521001519
493.0,0.0052167143678181
493.04,0.0019358032739941
493.08,0.0006208235182947
493.12,0.0002238521396811
493.16,0.0001904136127991
493.2,0.0002614876294
493.24,0.0003367942247857
493.28,0.0003895423100776
493.32,0.0004201242110724
493.36,0.0004357965798093
493.4,0.000443022749819
493.44,0.0004458706739019
493.48,0.0004463141764013
493.52,0.0004447288972506
493.56,0.0004364812812421
493.6,0.000422160345079
493.64,0.0003968846801509
493.68,0.0003556920276629
493.72,0.0002992722492753
493.77,0.0002510841199914
493.81,0.0002936125480511
493.85,0.0006329097836026
493.89,0.0017089588401454
493.93,0.0043377549004546
493.97,0.0098783542851989
494.01,0.0203636720014428
494.05,0.0385185951947738
494.09,0.0675415672442747
494.13,0.1106482136803674
494.17,0.1702691212105606
494.21,0.2470614229332378
494.25,0.3390318483657208
494.29,0.4409452222107162
494.33,0.5444606834198865
494.37,0.6390318355541466
494.41,0.7135684308460687
494.45,0.7585317946852245
494.49,0.7678428350740053
494.53,0.7402281730398576
494.57,0.67947774678963
494.61,0.5935834621171083
494.65,0.4931352748139421
494.69,0.3891830990663766
494.73,0.2913530027237041
494.77,0.2065005278185582
494.81,0.1382402083791576
494.85,0.087236713454902
494.89,0.0520048841747664
494.93,0.0299661624360469
494.97,0.0178113643568899
495.01,0.0145583683793948
495.05,0.0190499690563876
495.09,0.0309641154393123
495.13,0.0504924778305773
495.18,0.0778593731692031
495.22,0.1127038124719358
495.26,0.1535830523297537
495.3,0.1977217168300197
495.34,0.2410679625830286
495.38,0.2787366905587884
495.42,0.3073079196357032
495.46,0.322629189810318
495.5,0.3226211825763908
495.54,0.3072921339459608
495.58,0.2787368278256558
495.62,0.2406500307276458
495.66,0.197594653466499
495.7,0.1541355057151152
495.74,0.1140623655356645
495.78,0.079925793165479
495.82,0.0529142405662979
495.86,0.0329874793948705
495.9,0.0192974813506488
495.94,0.0105583212694059
495.98,0.0053927421040712
496.02,0.0025864570330729
496.06,0.0012080287107013
496.1,0.0006155832275188
496.14,0.0004088726951199
496.18,0.0003674530017463
496.22,0.0003816601872587
496.26,0.0004056820520679
496.3,0.0004247455853328
496.34,0.000436562720828
496.38,0.0004429295669244
496.42,0.0004460145441326
496.46,0.0004473903819647
496.5,0.0004479585350325
496.54,0.0004481773918732
496.59,0.0004482563611917
496.63,0.0004482831226764
496.67,0.0004482916706562
496.71,0.000448294255826
496.75,0.000448295010695
