Wavelength (nm),Normalized
200.0,0.0509196121988261
200.03,0.124328689203541
200.05,0.1946549075314108
200.07,0.2618982671824353
200.1,0.3260587681566146
200.12,0.3871364104539498
200.15,0.4636930580605241
200.18,0.5287677620480832
200.2,0.5704363588548225
200.22,0.5796899462465543
200.25,0.555414912611338
200.28,0.5124594854034787
200.3,0.4676108530897386
200.32,0.4603768442601438
200.35,0.5021306342072214
200.38,0.5997061944059342
200.4,0.7404962473978316
200.43,0.8741024051720978
200.45,0.9683401809287588
200.47,1.0
200.5,0.9439015154562173
200.53,0.8207592541681871
200.55,0.6471221034835207
200.57,0.4678997471684458
200.6,0.3062447828928269
200.62,0.1849480752022582
200.65,0.1068846638036239
200.68,0.0551815570110696
200.7,0.0287800067234909
200.72,0.0202737004402454
200.75,0.013349851291652
200.78,0.0166507041805392
200.8,0.0252230079118882
200.82,0.04526673140374
200.85,0.077507933739341
200.88,0.1199598280895999
200.9,0.1666419431568763
200.93,0.2060662345346116
200.95,0.2307862116784849
200.97,0.2363000598831623
201.0,0.219836888600536
201.03,0.1877082675836378
201.05,0.1438725577411403
201.07,0.0998340773303742
201.1,0.0610167315168055
201.12,0.0325672231107493
201.15,0.0149716694002224
201.18,0.0048654424779819
201.2,0.002334912064821
201.22,0.005593418951599
201.25,0.0120153366993221
201.28,0.0234035569697017
201.3,0.0378158286827136
201.32,0.0531268488069459
201.35,0.0669675856697752
201.38,0.0772045502902181
201.4,0.0810758486029409
201.43,0.0776849219436806
201.45,0.067659454196546
201.47,0.0523261051899048
201.5,0.0368296908476392
201.53,0.0226816594951012
201.55,0.013028470519276
201.57,0.0168748645457056
201.6,0.0375360095254772
201.62,0.074331275454016
201.65,0.1348123914607667
201.68,0.2206800610160888
201.7,0.3222720746940036
201.72,0.4284929301893169
201.75,0.5194022687819835
201.78,0.5702733806733056
201.8,0.5778390108829385
201.82,0.5436419178494483
201.85,0.4746709894743463
201.88,0.3853811703006577
201.9,0.300218969670623
201.93,0.232157276524758
201.95,0.1855590254976764
201.97,0.1625037136006025
202.0,0.1549271891274992
202.03,0.1536662870734386
202.05,0.1615145144774929
202.07,0.1714638095344427
202.1,0.1829352510834725
202.12,0.1939408539265094
202.15,0.1979660663935415
202.18,0.1897412025127896
202.2,0.1694576962819549
202.22,0.1390135680713723
202.25,0.1035457027811172
202.28,0.0702824224352531
202.3,0.0438391035415289
202.32,0.032037892637251
202.35,0.0381213583017401
202.38,0.0611584767788185
202.4,0.104822357940156
202.43,0.1708288482823357
202.45,0.2527768272065996
202.47,0.3423371727307843
202.5,0.4192182079264524
202.53,0.4743900917850262
202.55,0.4908454845635346
202.57,0.465294296905399
202.6,0.4020213079990967
202.62,0.3127254969804995
202.65,0.2196936944014816
202.68,0.1392456594603451
202.7,0.0788950349414424
202.72,0.0441377370917787
202.75,0.0278414223484646
202.78,0.0279133680644229
202.8,0.0316236927401075
202.82,0.0326810115138446
202.85,0.0321236065233831
202.88,0.0293419066870601
202.9,0.0240411097492031
202.93,0.0179326532979688
202.95,0.0121542217814035
202.97,0.0076187146488971
203.0,0.0046914746210353
203.03,0.0029244891705568
203.05,0.0022698185407754
203.07,0.0018957579440415
203.1,0.0018476591775618
203.12,0.0019842633572457
203.15,0.0020527688809423
203.18,0.0020672661512241
203.2,0.0020772335540721
203.22,0.002082731741773
203.25,0.0020759609663953
203.28,0.0020615079743222
203.3,0.0019848274500066
203.32,0.0018845152177056
203.35,0.0017616299880439
203.38,0.0011778591325007
203.4,0.0001464559389229
203.43,0.0010095330811103
203.45,0.0049879747912468
203.47,0.0117253896246848
203.5,0.0275682916153432
203.53,0.0521589632208898
203.55,0.0881668811187507
203.57,0.134494627583863
203.6,0.185485990355371
203.62,0.2348297700852012
203.65,0.27747325095285
203.68,0.3105951891244495
203.7,0.331361529112291
203.72,0.3403015796013457
203.75,0.3419664409448876
203.78,0.3316920610659821
203.8,0.3153182009552859
203.82,0.2893884594300818
203.85,0.2539336890445182
203.88,0.2110691199940018
203.9,0.1630705203404389
203.93,0.1184641764462798
203.95,0.0850771808444461
203.97,0.0672452325108757
204.0,0.0760759045946879
204.03,0.1094121329287496
204.05,0.1713503784631893
204.07,0.2477877992503439
204.1,0.3258825425507188
204.12,0.3925489420083527
204.15,0.4293859329659831
204.18,0.4300171465914562
204.2,0.3969153628072768
204.22,0.3381015920361393
204.25,0.2784483093219751
204.28,0.2331140107427258
204.3,0.2161997951638993
204.32,0.2232645071391646
204.35,0.2464945630223032
204.38,0.2770605980411194
204.4,0.2939772539349632
204.43,0.2862374898180199
204.45,0.2559763634452124
204.47,0.2080250884721649
204.5,0.1530615465081984
204.53,0.10206072097944
204.55,0.0602909112358145
204.57,0.0299238677831544
204.6,0.0118165929994486
204.62,0.0050535715919169
204.65,0.0026655577502649
204.68,0.0010262988545054
204.7,0.0008926402009795
204.72,0.0015603182673719
204.75,0.0017545338535929
204.78,0.0019877184872967
204.8,0.0020625071828831
204.82,0.0020760514629426
204.85,0.0020824775125738
204.88,0.0020858289334558
204.9,0.0020864496138599
204.93,0.0020865256119439
204.95,0.0020865477388979
204.97,0.0020865547166385
205.0,0.0020865554680031
205.03,0.0020865555267601
205.05,0.0020865555395815
205.07,0.002086555540324
205.88,0.0020865555400452
205.9,0.0020865555340098
205.93,0.0020865555055361
205.95,0.0020865553649454
205.97,0.0020865536448335
206.0,0.0020865477142771
206.03,0.002086493107599
206.05,0.0020861424908106
206.07,0.0020853474648703
206.1,0.002083384036254
206.12,0.0020716106791306
206.15,0.0020298963643985
206.18,0.0019848298647232
206.2,0.0019458859939634
206.22,0.0017485486762994
206.25,0.001483266558287
206.28,0.0021030199955496
206.3,0.0035135656500246
206.32,0.0075120417250448
206.35,0.0144652777135791
206.38,0.0242966732645933
206.4,0.0370944170922638
206.43,0.05078762601803
206.45,0.063022376315964
206.47,0.0719305719786314
206.5,0.0748109934516702
206.53,0.0719305719786314
206.55,0.063022376315964
206.57,0.05078762601803
206.6,0.0370944170922638
206.62,0.0242966654207236
206.65,0.0144652451615198
206.68,0.0075119375758861
206.7,0.003513249655376
206.72,0.002101244232347
206.75,0.001475273144341
206.78,0.0017315776875325
206.8,0.0018902659259798
206.82,0.0018945447569005
206.85,0.0019227404180734
206.88,0.0018116230704957
206.9,0.0015535427623586
206.93,0.0019854264894295
206.95,0.0034315096915185
206.97,0.0049118404488694
207.0,0.0098406170709235
207.03,0.0167349052892459
207.05,0.0301484778635168
207.07,0.0597550625065966
207.1,0.1066424102456859
207.12,0.1695348189519144
207.15,0.2483041655503124
207.18,0.3304230101028456
207.2,0.4019781449272271
207.22,0.4525100966081896
207.25,0.4691643750606131
207.28,0.4414519834152255
207.3,0.380935548206304
207.32,0.3015949369354576
207.35,0.2149128427470283
207.38,0.1351758589517814
207.4,0.0744392306326787
207.43,0.032020832656427
207.45,0.0085655760495376
207.47,0.0018133724364622
207.5,0.0006335412293122
207.53,0.0
207.55,0.0012094538360798
207.57,0.0014437438483946
207.6,0.0017254901297726
207.62,0.0019905598135
207.65,0.0020660739011087
207.68,0.0020787331050733
207.7,0.0020838894346283
207.72,0.0020861509017084
207.75,0.0020864423769827
207.78,0.0020863973441683
207.8,0.0020864040698406
207.82,0.0020864625539996
207.85,0.0020865727966451
207.88,0.0020867347977774
