Wavelength (nm),Normalized
287.47,4.217306484519154e-07
287.49,4.217306259761887e-07
287.52,4.217306108952048e-07
287.54,4.2173060320896395e-07
287.57,4.217306029174661e-07
287.59,4.217306100207112e-07
287.61,4.217305248544313e-07
287.64,4.217303045346832e-07
287.66,4.217296534263896e-07
287.69,4.217247447748973e-07
287.71,4.2171420036087386e-07
287.74,4.216480578822493e-07
287.76,4.2152694388564036e-07
287.78,4.208484781551888e-07
287.81,4.1980979213011626e-07
287.83,4.179904224000053e-07
287.86,4.072669524989579e-07
287.88,3.955629471693592e-07
287.91,3.402655427791624e-07
287.93,3.036968416698039e-07
287.95,1.1778442588656453e-07
287.98,1.296188437468076e-07
288.0,4.901372180095892e-07
288.03,5.099055000539351e-07
288.05,2.4112890727743294e-06
288.08,4.905825281279899e-06
288.1,1.366558773529314e-05
288.12,2.6856998555499787e-05
288.15,5.455548970143572e-05
288.17,9.867418767276194e-05
288.2,0.0001561818595048
288.22,0.0002367565422243
288.25,0.000334532162917
288.27,0.0004477970473649
288.29,0.0005684705017172
288.32,0.0006797798863339
288.34,0.0007715259865564
288.37,0.0008335393255513
288.39,0.0008558245876373
288.42,0.0008363166972308
288.44,0.000768691072646
288.46,0.0006745835927121
288.49,0.0005569645106667
288.51,0.0004359611475237
288.54,0.0003227806583478
288.56,0.0002228874835569
288.59,0.0001437479807998
288.61,8.890086991844012e-05
288.63,4.9189067486913125e-05
288.66,2.750502841900275e-05
288.68,1.2618147272927137e-05
288.71,6.5713859227418576e-06
288.73,1.8701895533913568e-06
288.76,4.213018884746373e-08
288.78,1.5915313951829533e-07
288.8,0.0
288.83,2.5397429932367053e-07
288.85,2.9198776797447113e-07
288.88,3.818461373394941e-07
288.9,3.944844860739144e-07
288.93,4.063588140746837e-07
288.95,4.173808792817165e-07
288.97,4.196272489208085e-07
289.0,4.212213326105165e-07
289.02,4.215167814701439e-07
289.05,4.216880867106713e-07
289.07,4.217140755728585e-07
289.1,4.217246411003336e-07
289.12,4.217295857201765e-07
289.14,4.217302876526442e-07
289.17,4.217305736523687e-07
289.19,4.217306094931374e-07
289.22,4.2173062228891625e-07
289.24,4.217306236425362e-07
289.27,4.2173062400610297e-07
289.29,4.21730624115686e-07
289.32,4.217306241258063e-07
295.03,4.217306241285183e-07
295.05,4.217306241287383e-07
295.08,4.21730624128791e-07
295.1,4.217306241287948e-07
295.12,4.217306241287957e-07
295.15,4.217306241287957e-07
295.17,4.217306241287957e-07
295.2,4.217306241287957e-07
295.22,4.217306241287957e-07
295.25,4.217306241287957e-07
295.27,4.217306241287957e-07
295.29,4.217306241287957e-07
295.32,4.217306241287957e-07
295.34,4.217306241287957e-07
295.37,4.217306241287957e-07
295.39,4.217306241287957e-07
295.42,4.217306241287957e-07
295.44,4.217306241287957e-07
295.46,4.217306241287957e-07
295.49,4.217306241287957e-07
295.51,4.217306241287957e-07
295.54,4.217306241287957e-07
295.56,4.217306241287957e-07
295.59,4.217306241287957e-07
295.61,4.217306241287957e-07
295.63,4.217306241287957e-07
295.66,4.217306241287957e-07
295.68,4.217306241287957e-07
295.71,4.217306241287957e-07
295.73,4.217306241287957e-07
295.76,4.217306241287957e-07
295.78,4.217306241287957e-07
295.8,4.217306241287957e-07
295.83,4.217306241287957e-07
295.85,4.217306241287957e-07
295.88,4.217306241287957e-07
295.9,4.217306241287957e-07
295.93,4.217306241287957e-07
295.95,4.217306241287957e-07
295.97,4.217306241287957e-07
296.0,4.217306241287957e-07
296.02,4.217306241287957e-07
296.05,4.217306241287957e-07
296.07,4.217306241287957e-07
296.1,4.217306241287957e-07
296.12,4.217306241287957e-07
296.15,4.217306241287957e-07
296.17,4.217306241287957e-07
296.19,4.217306241287957e-07
296.22,4.217306241287957e-07
296.24,4.217306241287957e-07
296.27,4.217306241287957e-07
296.29,4.217306241287957e-07
296.32,4.217306241287957e-07
296.34,4.217306241287957e-07
296.36,4.217306241287957e-07
296.39,4.217306241287957e-07
296.41,4.217306241287957e-07
296.44,4.217306241287957e-07
296.46,4.217306241287957e-07
296.49,4.217306241287957e-07
296.51,4.217306241287957e-07
296.53,4.217306241287957e-07
296.56,4.217306241287957e-07
296.58,4.217306241287957e-07
296.61,4.217306241287957e-07
296.63,4.217306241287957e-07
296.66,4.217306241287957e-07
296.68,4.217306241287957e-07
296.7,4.217306241287957e-07
296.73,4.217306241287957e-07
296.75,4.217306241287957e-07
296.78,4.217306241287957e-07
296.8,4.217306241287957e-07
296.83,4.217306241287957e-07
296.85,4.217306241287957e-07
296.87,4.217306241287957e-07
296.9,4.217306241287957e-07
297.43,4.217306241287957e-07
297.46,4.217306241287957e-07
297.48,4.217306241287957e-07
297.51,4.217306241287957e-07
297.53,4.217306241287957e-07
297.55,4.217306241287957e-07
297.58,4.217306241287957e-07
297.6,4.217306241287957e-07
297.63,4.217306241287957e-07
297.65,4.217306241287957e-07
297.68,4.217306241287957e-07
297.7,4.217306241287957e-07
297.72,4.217306241287957e-07
297.75,4.217306241287957e-07
297.77,4.217306241287957e-07
297.8,4.217306241287957e-07
297.82,4.217306241287957e-07
297.85,4.217306241287957e-07
297.87,4.217306241287957e-07
297.9,4.217306241287957e-07
297.92,4.217306241287957e-07
297.94,4.217306241287957e-07
297.97,4.217306241287957e-07
297.99,4.217306241287957e-07
298.02,4.217306241287957e-07
298.04,4.217306241287957e-07
298.07,4.217306241287957e-07
298.09,4.217306241287957e-07
298.11,4.217306241287957e-07
298.14,4.217306241287957e-07
298.16,4.217306241287957e-07
298.19,4.217306241287957e-07
298.21,4.217306241287957e-07
298.24,4.217306241287957e-07
298.26,4.217306241287957e-07
298.28,4.217306241287957e-07
298.31,4.217306241287957e-07
298.33,4.217306241287957e-07
298.36,4.217306241287957e-07
298.38,4.217306241287957e-07
298.41,4.217306241287957e-07
298.43,4.217306241287957e-07
298.45,4.217306241287957e-07
298.48,4.217306241287957e-07
298.5,4.217306241287957e-07
298.53,4.217306241287957e-07
298.55,4.217306241287957e-07
298.58,4.217306241287957e-07
298.6,4.217306241287957e-07
298.62,4.217306241287957e-07
298.65,4.217306241287957e-07
298.67,4.217306241287957e-07
298.7,4.217306241287957e-07
298.72,4.217306241287957e-07
298.75,4.217306241287957e-07
298.77,4.217306241287957e-07
298.79,4.217306241287957e-07
298.82,4.217306241287957e-07
298.84,4.217306241287957e-07
298.87,4.217306241287957e-07
298.89,4.217306241287957e-07
298.92,4.217306241287957e-07
298.94,4.217306241287957e-07
298.96,4.217306241287957e-07
298.99,4.217306241287957e-07
299.01,4.217306241287957e-07
299.04,4.217306241287957e-07
299.06,4.217306241287957e-07
299.09,4.217306241287957e-07
299.11,4.217306241287957e-07
299.13,4.217306241287957e-07
299.16,4.217306241287957e-07
299.18,4.217306241287957e-07
299.21,4.217306241287957e-07
299.23,4.217306241287957e-07
299.26,4.217306241287957e-07
299.28,4.217306241287957e-07
299.3,4.217306241287957e-07
299.33,4.217306241287957e-07
299.35,4.217306241287957e-07
299.38,4.217306241287957e-07
299.4,4.217306241287957e-07
299.43,4.217306241287957e-07
299.45,4.217306241287957e-07
299.47,4.217306241287957e-07
299.5,4.217306241287957e-07
299.52,4.217306241287957e-07
299.55,4.217306241287957e-07
299.57,4.217306241287957e-07
299.6,4.217306241287957e-07
299.62,4.217306241287957e-07
299.65,4.217306241287957e-07
299.67,4.217306241287957e-07
299.69,4.217306241287957e-07
299.72,4.217306241287957e-07
299.74,4.217306241287957e-07
299.77,4.217306241287957e-07
299.79,4.217306241287957e-07
299.82,4.217306241287957e-07
299.84,4.217306241287957e-07
299.86,4.217306241287957e-07
299.89,4.217306241287957e-07
299.91,4.217306241287957e-07
299.94,4.217306241287957e-07
299.96,4.217306241287957e-07
299.99,4.217306241287957e-07
300.01,4.217306241287957e-07
300.03,4.217306241287957e-07
300.06,4.217306241287957e-07
300.08,4.217306241287957e-07
300.11,4.217306241287957e-07
300.13,4.217306241287957e-07
300.16,4.217306241287957e-07
300.18,4.217306241287957e-07
300.2,4.217306241287957e-07
300.23,4.217306241287957e-07
300.25,4.217306241287957e-07
300.28,4.217306241287957e-07
300.3,4.217306241287957e-07
300.33,4.217306241287957e-07
300.35,4.217306241287957e-07
300.37,4.217306241287957e-07
300.4,4.217306241287957e-07
300.42,4.217306241287957e-07
300.45,4.217306241287957e-07
300.47,4.217306241287957e-07
300.5,4.217306241287957e-07
300.52,4.217306241287957e-07
300.54,4.217306241287957e-07
300.57,4.217306241287957e-07
300.59,4.217306241287957e-07
300.62,4.217306241287957e-07
300.64,4.217306241287957e-07
300.67,4.217306241287957e-07
300.69,4.217306241287957e-07
300.71,4.217306241287957e-07
300.74,4.217306241287957e-07
300.76,4.217306241287957e-07
300.79,4.217306241287957e-07
300.81,4.217306241287957e-07
300.84,4.217306241287957e-07
300.86,4.217306241287957e-07
300.88,4.217306241287957e-07
300.91,4.217306241287957e-07
300.93,4.217306241287957e-07
300.96,4.217306241287957e-07
300.98,4.217306241287957e-07
301.01,4.217306241287957e-07
301.03,4.217306241287957e-07
301.05,4.217306241287957e-07
301.08,4.217306241287957e-07
301.1,4.217306241287957e-07
301.13,4.217306241287957e-07
301.15,4.217306241287957e-07
301.18,4.217306241287957e-07
301.2,4.217306241287957e-07
301.23,4.217306241287957e-07
301.25,4.217306241287957e-07
301.27,4.217306241287957e-07
301.3,4.217306241287957e-07
301.32,4.217306241287957e-07
301.35,4.217306241287957e-07
301.37,4.217306241287957e-07
301.4,4.217306241287957e-07
301.42,4.217306241287957e-07
301.44,4.217306241287957e-07
301.47,4.217306241287957e-07
301.49,4.217306241287957e-07
301.52,4.217306241287957e-07
301.54,4.217306241287957e-07
301.57,4.217306241287957e-07
301.59,4.217306241287957e-07
301.61,4.217306241287957e-07
301.64,4.217306241287957e-07
301.66,4.217306241287957e-07
301.69,4.217306241287957e-07
301.71,4.217306241287957e-07
301.74,4.217306241287957e-07
301.76,4.217306241287957e-07
301.78,4.217306241287957e-07
301.81,4.217306241287957e-07
301.83,4.217306241287957e-07
301.86,4.217306241287957e-07
301.88,4.217306241287957e-07
301.91,4.217306241287957e-07
301.93,4.217306241287957e-07
301.95,4.217306241287957e-07
301.98,4.217306241287957e-07
302.0,4.217306241287957e-07
302.03,4.217306241287957e-07
302.05,4.217306241287957e-07
302.08,4.217306241287957e-07
302.1,4.217306241287957e-07
302.12,4.217306241287957e-07
302.15,4.217306241287957e-07
302.17,4.217306241287957e-07
302.2,4.217306241287957e-07
302.22,4.217306241287957e-07
302.25,4.217306241287957e-07
302.27,4.217306241287957e-07
302.29,4.217306241287957e-07
302.32,4.217306241287957e-07
302.34,4.217306241287957e-07
302.37,4.217306241287957e-07
302.39,4.217306241287957e-07
302.42,4.217306241287957e-07
302.44,4.217306241287957e-07
302.46,4.217306241287957e-07
302.49,4.217306241287957e-07
302.51,4.217306241287957e-07
302.54,4.217306241287957e-07
302.56,4.217306241287957e-07
302.59,4.217306241287957e-07
302.61,4.217306241287957e-07
302.63,4.217306241287957e-07
302.66,4.217306241287957e-07
302.68,4.217306241287957e-07
302.71,4.217306241287957e-07
302.73,4.217306241287957e-07
302.76,4.217306241287957e-07
302.78,4.217306241287957e-07
302.8,4.217306241287957e-07
302.83,4.217306241287957e-07
302.85,4.217306241287957e-07
302.88,4.217306241287957e-07
302.9,4.217306241287957e-07
302.93,4.217306241287957e-07
302.95,4.217306241287957e-07
302.98,4.217306241287957e-07
303.0,4.217306241287957e-07
303.02,4.217306241287957e-07
303.05,4.217306241287957e-07
303.07,4.217306241287957e-07
303.1,4.217306241287957e-07
303.12,4.217306241287957e-07
303.15,4.217306241287957e-07
303.17,4.217306241287957e-07
303.19,4.217306241287957e-07
303.22,4.217306241287957e-07
303.24,4.217306241287957e-07
303.27,4.217306241287957e-07
303.29,4.217306241287957e-07
303.32,4.217306241287957e-07
303.34,4.217306241287957e-07
303.36,4.217306241287957e-07
303.39,4.217306241287957e-07
303.41,4.217306241287957e-07
303.44,4.217306241287957e-07
303.46,4.217306241287957e-07
303.49,4.217306241287957e-07
303.51,4.217306241287957e-07
303.53,4.217306241287957e-07
303.56,4.217306241287957e-07
303.58,4.217306241287957e-07
303.61,4.217306241287957e-07
303.63,4.217306241287957e-07
303.66,4.217306241287957e-07
303.68,4.217306241287957e-07
303.7,4.217306241287957e-07
303.73,4.217306241287957e-07
303.75,4.217306241287957e-07
303.78,4.217306241287957e-07
303.8,4.217306241287957e-07
303.83,4.217306241287957e-07
303.85,4.217306241287957e-07
303.87,4.217306241287957e-07
303.9,4.217306241287957e-07
303.92,4.217306241287957e-07
303.95,4.217306241287957e-07
303.97,4.217306241287957e-07
304.0,4.217306241287957e-07
304.02,4.217306241287957e-07
304.04,4.217306241287957e-07
304.07,4.217306241287957e-07
304.09,4.217306241287957e-07
304.12,4.217306241287957e-07
304.14,4.217306241287957e-07
304.17,4.217306241287957e-07
304.19,4.217306241287957e-07
304.21,4.217306241287957e-07
304.24,4.217306241287957e-07
304.26,4.217306241287957e-07
304.29,4.217306241287957e-07
304.31,4.217306241287957e-07
304.34,4.217306241287957e-07
304.36,4.217306241287957e-07
304.38,4.217306241287957e-07
304.41,4.217306241287957e-07
304.43,4.217306241287957e-07
304.46,4.217306241287957e-07
304.48,4.217306241287957e-07
304.51,4.217306241287957e-07
304.53,4.217306241287957e-07
304.55,4.217306241287957e-07
304.58,4.217306241287957e-07
304.6,4.217306241287957e-07
304.63,4.217306241287957e-07
304.65,4.217306241287957e-07
304.68,4.217306241287957e-07
304.7,4.217306241287957e-07
304.73,4.217306241287957e-07
304.75,4.217306241287957e-07
304.77,4.217306241287957e-07
304.8,4.217306241287957e-07
304.82,4.217306241287957e-07
304.85,4.217306241287957e-07
304.87,4.217306241287957e-07
304.9,4.217306241287957e-07
304.92,4.217306241287957e-07
304.94,4.217306241287957e-07
304.97,4.217306241287957e-07
304.99,4.217306241287957e-07
305.02,4.217306241287957e-07
305.04,4.217306241287957e-07
305.07,4.217306241287957e-07
305.09,4.217306241287957e-07
305.11,4.217306241287957e-07
305.14,4.217306241287957e-07
305.16,4.217306241287957e-07
305.19,4.217306241287957e-07
305.21,4.217306241287957e-07
305.24,4.217306241287957e-07
305.26,4.217306241287957e-07
305.28,4.217306241287957e-07
305.31,4.217306241287957e-07
305.33,4.217306241287957e-07
305.36,4.217306241287957e-07
305.38,4.217306241287957e-07
305.41,4.217306241287957e-07
305.43,4.217306241287957e-07
305.45,4.217306241287957e-07
305.48,4.217306241287957e-07
305.5,4.217306241287957e-07
305.53,4.217306241287957e-07
305.55,4.217306241287957e-07
305.58,4.217306241287957e-07
305.6,4.217306241287957e-07
305.62,4.217306241287957e-07
305.65,4.217306241287957e-07
305.67,4.217306241287957e-07
305.7,4.217306241287957e-07
305.72,4.217306241287957e-07
305.75,4.217306241287957e-07
305.77,4.217306241287957e-07
305.79,4.217306241287957e-07
305.82,4.217306241287957e-07
305.84,4.217306241287957e-07
305.87,4.217306241287957e-07
305.89,4.217306241287957e-07
305.92,4.217306241287957e-07
305.94,4.217306241287957e-07
305.96,4.217306241287957e-07
305.99,4.217306241287957e-07
306.01,4.217306241287957e-07
306.04,4.217306241287957e-07
306.06,4.217306241287957e-07
306.09,4.217306241287957e-07
306.11,4.217306241287957e-07
306.13,4.217306241287957e-07
306.16,4.217306241287957e-07
306.18,4.217306241287957e-07
306.21,4.217306241287957e-07
306.23,4.217306241287957e-07
306.26,4.217306241287957e-07
306.28,4.217306241287957e-07
306.3,4.217306241287957e-07
306.33,4.217306241287957e-07
306.35,4.217306241287957e-07
306.38,4.217306241287957e-07
306.4,4.217306241287957e-07
306.43,4.217306241287957e-07
306.45,4.217306241287957e-07
306.48,4.217306241287957e-07
306.5,4.217306241287957e-07
306.52,4.217306241287957e-07
306.55,4.217306241287957e-07
306.57,4.217306241287957e-07
306.6,4.217306241287957e-07
306.62,4.217306241287957e-07
306.65,4.217306241287957e-07
306.67,4.217306241287957e-07
306.69,4.217306241287957e-07
306.72,4.217306241287957e-07
306.74,4.217306241287957e-07
306.77,4.217306241287957e-07
306.79,4.217306241287957e-07
306.82,4.217306241287957e-07
306.84,4.217306241287957e-07
306.86,4.217306241287957e-07
306.89,4.217306241287957e-07
306.91,4.217306241287957e-07
306.94,4.217306241287957e-07
306.96,4.217306241287957e-07
306.99,4.217306241287957e-07
307.01,4.217306241287957e-07
307.03,4.217306241287957e-07
307.06,4.217306241287957e-07
307.08,4.217306241287957e-07
307.11,4.217306241287957e-07
307.13,4.217306241287957e-07
307.16,4.217306241287957e-07
307.18,4.217306241287957e-07
307.2,4.217306241287957e-07
307.23,4.217306241287957e-07
307.25,4.217306241287957e-07
307.28,4.217306241287957e-07
307.3,4.217306241287957e-07
307.33,4.217306241287957e-07
307.35,4.217306241287957e-07
307.37,4.217306241287957e-07
307.4,4.217306241287957e-07
307.42,4.217306241287957e-07
307.45,4.217306241287957e-07
307.47,4.217306241287957e-07
307.5,4.217306241287957e-07
307.52,4.217306241287957e-07
307.54,4.217306241287957e-07
307.57,4.217306241287957e-07
307.59,4.217306241287957e-07
307.62,4.217306241287957e-07
307.64,4.217306241287957e-07
307.67,4.217306241287957e-07
307.69,4.217306241287957e-07
307.71,4.217306241287957e-07
307.74,4.217306241287957e-07
307.76,4.217306241287957e-07
307.79,4.217306241287957e-07
307.81,4.217306241287957e-07
307.84,4.217306241287957e-07
307.86,4.217306241287957e-07
307.88,4.217306241287957e-07
307.91,4.217306241287957e-07
307.93,4.217306241287957e-07
307.96,4.217306241287957e-07
307.98,4.217306241287957e-07
308.01,4.217306241287957e-07
308.03,4.217306241287957e-07
308.06,4.217306241287957e-07
308.08,4.217306241287957e-07
308.1,4.217306241287957e-07
308.13,4.217306241287957e-07
308.15,4.217306241287957e-07
308.18,4.217306241287957e-07
308.2,4.217306241287957e-07
308.23,4.217306241287957e-07
308.25,4.217306241287957e-07
308.27,4.217306241287957e-07
308.3,4.217306241287957e-07
308.32,4.217306241287957e-07
308.35,4.217306241287957e-07
308.37,4.217306241287957e-07
308.4,4.217306241287957e-07
308.42,4.217306241287957e-07
308.44,4.217306241287957e-07
308.47,4.217306241287957e-07
308.49,4.217306241287957e-07
308.52,4.217306241287957e-07
308.54,4.217306241287957e-07
308.57,4.217306241287957e-07
308.59,4.217306241287957e-07
308.61,4.217306241287957e-07
308.64,4.217306241287957e-07
308.66,4.217306241287957e-07
308.69,4.217306241287957e-07
308.71,4.217306241287957e-07
308.74,4.217306241287958e-07
308.76,4.217306241287958e-07
308.78,4.217306241287958e-07
308.81,4.217306241287958e-07
308.83,4.217306241287958e-07
308.86,4.217306241287958e-07
308.88,4.217306241287958e-07
308.91,4.217306241287958e-07
308.93,4.217306241287958e-07
308.95,4.217306241287958e-07
308.98,4.217306241287958e-07
309.0,4.217306241287958e-07
309.03,4.217306241287958e-07
309.05,4.217306241287958e-07
309.08,4.217306241287958e-07
309.1,4.217306241287958e-07
309.12,4.217306241287958e-07
309.15,4.217306241287958e-07
309.17,4.217306241287958e-07
309.2,4.217306241287958e-07
309.22,4.217306241287958e-07
309.25,4.217306241287958e-07
309.27,4.217306241287958e-07
309.29,4.217306241287958e-07
309.32,4.217306241287958e-07
309.34,4.217306241287958e-07
309.37,4.217306241287958e-07
309.39,4.217306241287958e-07
309.42,4.217306241287958e-07
309.44,4.217306241287958e-07
309.46,4.217306241287958e-07
309.49,4.217306241287958e-07
309.51,4.217306241287958e-07
309.54,4.217306241287958e-07
309.56,4.217306241287958e-07
309.59,4.217306241287958e-07
309.61,4.217306241287958e-07
309.63,4.217306241287958e-07
309.66,4.217306241287958e-07
309.68,4.217306241287958e-07
309.71,4.217306241287958e-07
309.73,4.217306241287958e-07
309.76,4.217306241287958e-07
309.78,4.217306241287958e-07
309.81,4.217306241287958e-07
309.83,4.217306241287958e-07
309.85,4.217306241287958e-07
309.88,4.217306241287958e-07
309.9,4.217306241287958e-07
309.93,4.217306241287958e-07
309.95,4.217306241287958e-07
309.98,4.217306241287958e-07
310.0,4.217306241287958e-07
310.02,4.217306241287958e-07
310.05,4.217306241287958e-07
310.07,4.217306241287958e-07
310.1,4.217306241287958e-07
310.12,4.217306241287958e-07
310.15,4.217306241287958e-07
310.17,4.217306241287958e-07
310.19,4.217306241287958e-07
310.22,4.217306241287958e-07
310.24,4.217306241287958e-07
310.27,4.217306241287958e-07
310.29,4.217306241287958e-07
310.32,4.217306241287958e-07
310.34,4.217306241287958e-07
310.36,4.217306241287958e-07
310.39,4.217306241287958e-07
310.41,4.217306241287958e-07
310.44,4.217306241287958e-07
310.46,4.217306241287958e-07
310.49,4.217306241287958e-07
