Wavelength (nm),Normalized
244.05,0.0001649593635045
244.07,0.000164958986154
244.1,0.0001649587326741
244.12,0.000164958603065
244.15,0.0001649585973264
244.18,0.0001649587154585
244.2,0.0001649581560904
244.22,0.000164953669722
244.25,0.0001649293446982
244.28,0.0001648812156447
244.3,0.0001646066682609
244.32,0.0001641661545536
244.35,0.000163388629357
244.38,0.0001591205173689
244.4,0.0001468334558958
244.43,0.0001389846052315
244.45,0.0001411556451818
244.47,0.0001151211827613
244.5,0.0001764619477849
244.53,0.0002628751439539
244.55,0.0005356800937492
244.57,0.0014486155993189
244.6,0.0031114213903567
244.62,0.0054613121455725
244.65,0.0087728040426265
244.68,0.0129962158121427
244.7,0.0176326288800844
244.72,0.0222007526403081
244.75,0.0259934702795082
244.78,0.0279577802751041
244.8,0.028113801720346
244.82,0.0263732315926843
244.85,0.0229408748951494
244.88,0.0184084902768006
244.9,0.0136876849533546
244.93,0.0093608258501858
244.95,0.0058167759577309
244.97,0.0033850353292498
245.0,0.0018476189350275
245.03,0.0008480151791496
245.05,0.0004360571321851
245.07,0.0001580059919862
245.1,7.574811675884606e-05
245.12,0.0001214917657526
245.15,0.0001481817768499
245.18,0.0001507646592184
245.2,0.0001560702609565
245.22,0.0001621712095719
245.25,0.0001635605233917
245.28,0.0001646177199418
245.3,0.0001648886332065
245.32,0.0001649315768839
245.35,0.000164949165276
245.38,0.0001649573389135
245.4,0.0001649587285481
245.43,0.0001649588910037
245.45,0.0001649589377966
245.47,0.0001649589528004
245.5,0.0001649589545068
245.53,0.0001649589546465
246.9,0.0001649589546128
246.93,0.0001649589543458
246.95,0.0001649589531953
246.97,0.0001649589408246
247.0,0.0001649589019614
247.03,0.0001649585630438
247.05,0.0001649564151687
247.07,0.0001649514146805
247.1,0.0001649382018846
247.12,0.0001648497197114
247.15,0.0001644715640179
247.18,0.0001639050210332
247.2,0.0001629636662908
247.22,0.0001578294535657
247.25,0.0001434469113516
247.28,0.000135287843523
247.3,0.0001029890811986
247.32,0.000125616663075
247.35,0.0002419597504975
247.38,0.0003842917002083
247.4,0.0007350823861739
247.43,0.0017909462168036
247.45,0.0036659388458374
247.47,0.0062837514683871
247.5,0.0099804118192091
247.53,0.01452489756316
247.55,0.0196139580018547
247.57,0.0244447425862788
247.6,0.028243593658687
247.62,0.0305186600072756
247.65,0.0308299355791763
247.68,0.0290784362771618
247.7,0.0254807019631277
247.72,0.0206752516805908
247.75,0.015638663044341
247.78,0.0108684961164405
247.8,0.0069659258238284
247.82,0.0039410935604454
247.85,0.001956613675109
247.88,0.0009932141635918
247.9,0.0004993099934767
247.93,0.0001661066960165
247.95,6.140125760717327e-05
247.97,0.0001090179657918
248.0,0.0001405039393029
248.03,0.0001471420807492
248.05,0.0001592947869593
248.07,0.0001614901082947
248.1,0.0001631685940932
248.12,0.0001645096881454
248.15,0.0001648639737022
248.18,0.000164921116529
248.2,0.000164945190326
248.22,0.0001649565847917
248.25,0.0001649582032034
248.28,0.000164958848117
248.3,0.0001649589418136
248.32,0.000164958951452
248.35,0.0001649589539195
248.38,0.0001649589546166
248.4,0.0001649589546837
275.48,0.0001649589546736
275.5,0.0001649589546217
275.52,0.0001649589540935
275.55,0.0001649589500976
275.57,0.0001649589389673
275.6,0.0001649588502236
275.62,0.0001649586325645
275.65,0.0001649580242242
275.68,0.0001649536702482
275.7,0.0001649450248948
275.73,0.0001648943442266
275.75,0.0001646916178177
275.77,0.0001644065705122
275.8,0.0001630492680957
275.82,0.0001615677097697
275.85,0.0001548133202235
275.88,0.0001504650508064
275.9,0.000151334711984
275.93,0.0001272427926492
275.95,0.0001535378477912
275.98,0.0001597040102061
276.0,0.0003975676161385
276.02,0.0007523219732081
276.05,0.0015190317862631
276.07,0.0034850865108533
276.1,0.0064814145258184
276.12,0.0113475691718789
276.15,0.0179328110714556
276.18,0.0257821226066921
276.2,0.0346535173295197
276.23,0.0437104062043682
276.25,0.052013437821737
276.27,0.0576910121749757
276.3,0.0605870003942408
276.32,0.0599670069790499
276.35,0.0559222405316544
276.38,0.049263061092269
276.4,0.040699422506774
276.43,0.0314917555303351
276.45,0.0228657748676872
276.48,0.0156580695544005
276.5,0.0101106260385437
276.52,0.0059597647526107
276.55,0.0034643411321754
276.57,0.0017440383692916
276.6,0.0009584032163143
276.62,0.0003808620393567
276.65,0.0001404530074884
276.68,0.0001340588235679
276.7,0.0001098531513505
276.73,0.0001383518580402
276.75,0.0001442065603738
276.77,0.0001575962647083
276.8,0.000162651969433
276.82,0.0001637371561951
276.85,0.0001646533099325
276.88,0.0001648102907669
276.9,0.0001648937867952
276.93,0.0001649445440298
276.95,0.0001649533315889
276.98,0.0001649578934097
277.0,0.0001649587752339
277.02,0.0001649588979312
277.05,0.0001649589464959
277.07,0.0001649589523924
277.1,0.0001649589544161
277.12,0.0001649589546193
277.15,0.0001649589546651
323.3,0.0001649589546201
323.32,0.0001649589544586
323.35,0.0001649589531766
323.38,0.0001649589500431
323.4,0.0001649589411448
323.43,0.0001649588750595
323.45,0.0001649587357098
323.48,0.0001649578559505
323.5,0.0001649562222494
323.52,0.0001649467684527
323.55,0.0001649089333822
323.57,0.0001648549689753
323.6,0.0001645836233618
323.62,0.0001642533794689
323.65,0.0001638020805556
323.68,0.00016080638394
323.7,0.0001583999510054
323.73,0.0001454939614768
323.75,0.0001132724432215
323.77,0.0001115259798313
323.8,6.076868784040471e-05
323.82,0.000164434162493
323.85,0.0002195007524782
323.88,0.0008805137146831
323.9,0.0023955184211922
323.93,0.0042447601966572
323.95,0.0086273378318145
323.98,0.0147099973134292
324.0,0.0262333110490456
324.02,0.0419895536065651
324.05,0.0645962502221507
324.07,0.0979876427744801
324.1,0.1392481534008601
324.12,0.1892326926584439
324.15,0.2433232815409313
324.18,0.2968842415600378
324.2,0.3452128305833103
324.23,0.3833515822859744
324.25,0.4081144876016175
324.27,0.410936429577608
324.3,0.3970144569776682
324.32,0.3666959093471071
324.35,0.3232788754200504
324.38,0.2720661916155517
324.4,0.2176160372449968
324.43,0.1662515010928913
324.45,0.1205752254841592
324.48,0.0847696645127579
324.5,0.0571713252027038
324.52,0.0358219440288362
324.55,0.0224433352949159
324.57,0.0125403106624585
324.6,0.0072897953956345
324.62,0.0032393174379425
324.65,0.0011540144485078
324.68,0.0005697085193048
324.7,9.68439843133443e-05
324.73,9.864291413471144e-05
324.75,4.823750268044852e-05
324.77,0.0001167047937804
324.8,0.0001474807841648
324.82,0.0001516262450881
324.85,0.0001610106297699
324.88,0.0001621206802674
324.9,0.0001632770477421
324.93,0.0001644450679124
324.95,0.0001646890137195
324.98,0.0001648870788877
325.0,0.0001649413490858
325.02,0.0001649513138331
325.05,0.0001649572933347
325.07,0.0001649583064082
325.1,0.0001649588348581
325.12,0.000164958910397
325.15,0.00016495893923
325.18,0.0001649589520957
325.2,0.0001649589538589
325.23,0.0001649589545643
325.25,0.0001649589546499
339.43,0.000164958954657
339.45,0.0001649589544983
339.48,0.0001649589540989
339.5,0.0001649589529431
339.52,0.0001649589441384
339.55,0.0001649588978371
339.58,0.0001649588054657
339.6,0.0001649582366733
339.62,0.0001649571984149
339.65,0.0001649549486293
339.68,0.0001649405695324
339.7,0.0001648844718794
339.73,0.0001648087932404
339.75,0.0001644319518311
339.77,0.0001639979713982
339.8,0.0001618264388867
339.83,0.000159922636397
339.85,0.000150010924869
339.88,0.0001449575807214
339.9,0.000148681806046
339.93,0.0001057834018285
339.95,0.0
339.98,0.0001030875712194
340.0,0.0005255519999973
340.02,0.0008430752434967
340.05,0.0014240000959031
340.08,0.0046937264332394
340.1,0.0094128098937847
340.12,0.0207252082127201
340.15,0.0399160260415713
340.18,0.0645487327400244
340.2,0.0999081746871782
340.23,0.1560932261433366
340.25,0.2278153381614643
340.27,0.3213890976361652
340.3,0.4297782187371757
340.33,0.5522295015432688
340.35,0.6773993173576288
340.38,0.7966963836639384
340.4,0.8951986048209706
340.43,0.9645327446764552
340.45,1.0
340.48,0.9941676114494236
340.5,0.9441361378718368
340.52,0.868126582115747
340.55,0.7650529326131262
340.58,0.6459006337461725
340.6,0.5225792883986375
340.62,0.402302714343642
340.65,0.2953391432837067
340.68,0.2105313591894221
340.7,0.1433624593737186
340.73,0.0887729650639197
340.75,0.0515631829503263
340.77,0.0311820990006449
340.8,0.0183141310644469
340.83,0.0089059985273381
340.85,0.004810078837751
340.88,0.0015083320401667
340.9,0.0001124830087263
340.93,0.0001167000330802
340.95,0.0001390250700634
340.98,5.769996802333937e-05
341.0,0.0001221086604796
341.02,0.0001236519296219
341.05,0.0001506442792599
341.08,0.0001548732589131
341.1,0.0001619673083993
341.12,0.0001628988854367
341.15,0.0001637709192786
341.18,0.0001646239442589
341.2,0.0001648748811201
341.23,0.0001649155539654
341.25,0.0001649385302382
341.27,0.0001649540817958
341.3,0.0001649578855106
341.33,0.0001649585316317
341.35,0.000164958874491
341.38,0.0001649589240148
341.4,0.0001649589435326
341.43,0.0001649589527155
341.45,0.000164958954368
341.48,0.0001649589545884
345.02,0.0001649589546694
345.05,0.0001649589546423
345.08,0.0001649589545571
345.1,0.0001649589539264
345.12,0.0001649589525441
345.15,0.0001649589489777
345.18,0.0001649589240251
345.2,0.0001649588085095
345.23,0.0001649586095437
345.25,0.0001649574958717
345.27,0.0001649557590612
345.3,0.0001649464563025
345.33,0.0001649339143744
345.35,0.0001648697172599
345.38,0.0001647983484396
345.4,0.0001647114891255
345.43,0.0001640699209051
345.45,0.000162208682123
345.48,0.0001612886844321
345.5,0.0001619751896512
345.52,0.0001553528459287
345.55,0.0001389818493096
345.58,0.0001568466058345
345.6,0.000160635712984
345.62,0.0002959184859124
345.65,0.0006178144733989
345.68,0.0009837086772537
345.7,0.0016028047645161
345.73,0.0033108214012874
345.75,0.0057654722699424
345.77,0.0103556766454878
345.8,0.0165530679036119
345.83,0.0261099441249742
345.85,0.0381469807212886
345.88,0.0540733020004934
345.9,0.0729118965570265
345.93,0.0931003093682059
345.95,0.1143089694293796
345.98,0.1351386508423322
346.0,0.153007531193029
346.02,0.1677177957507321
346.05,0.1765416269523184
346.08,0.1784794133022231
346.1,0.1733907354997285
346.12,0.1619421120434509
346.15,0.1448714987920985
346.18,0.1245496799720515
346.2,0.1030915134849212
346.23,0.0815134406805295
346.25,0.0618388602008326
346.27,0.0454153804229573
346.3,0.0321287015707565
346.33,0.0212282735298438
346.35,0.0136987711722441
346.38,0.0077766324362701
346.4,0.0040609295401699
346.43,0.0023496326164557
346.45,0.0013476036581174
346.48,0.0006198465120481
346.5,0.0003948978615726
346.52,0.0002102447265269
346.55,0.0001906648004215
346.58,0.0001557278673615
346.6,0.0001632380933975
346.62,0.000156262120189
346.65,0.00015688162605
346.68,0.0001621451211705
346.7,0.0001640933720558
346.73,0.0001642863433404
346.75,0.000164540493605
346.77,0.0001648309177524
346.8,0.0001649230804756
346.83,0.0001649410165197
346.85,0.0001649546161422
346.88,0.0001649568075542
346.9,0.0001649579770531
346.93,0.0001649587288952
346.95,0.0001649589063455
346.98,0.000164958935811
347.0,0.0001649589510242
347.02,0.000164958953368
347.05,0.0001649589544594
347.08,0.0001649589546142
347.1,0.0001649589546777
347.12,0.0001649589546813
350.65,0.0001649589546704
350.68,0.0001649589545644
350.7,0.0001649589539716
350.73,0.0001649589527185
350.75,0.000164958944613
350.77,0.000164958928752
350.8,0.0001649588323952
350.83,0.0001649586630263
350.85,0.0001649577002717
350.88,0.0001649562022878
350.9,0.0001649534349421
350.93,0.0001649360399506
350.95,0.0001648752935528
350.98,0.0001648094763048
351.0,0.0001647307268514
351.02,0.0001641638809389
351.05,0.0001625067575645
351.08,0.0001616363518168
351.1,0.0001566351418617
351.12,0.0001570680652827
351.15,0.0001664803535661
351.18,0.0001590500798246
351.2,0.0001386962996278
351.23,0.0002420925426515
351.25,0.00035850076959
351.27,0.0008690187707617
351.3,0.0015538929877924
351.33,0.0032766261044019
351.35,0.0056567480863934
351.38,0.0102492413732724
351.4,0.0173111367170219
351.43,0.0261039257895537
351.45,0.0379129127452252
351.48,0.0547926554990173
351.5,0.0759022240383622
351.52,0.099854503310015
351.55,0.126193557727321
351.58,0.1540655100554858
351.6,0.1807716496829742
351.62,0.2041773730433015
351.65,0.2211196138956918
351.68,0.2303840650050129
351.7,0.2317153627467903
351.73,0.2242396847185248
351.75,0.2088877116297274
351.77,0.1856325105981295
351.8,0.1591150034556672
351.83,0.1307515835749903
351.85,0.103240961567634
351.88,0.0774370146683929
351.9,0.055497437617647
351.93,0.0390093470573413
351.95,0.0264613683628743
351.98,0.016635023155296
352.0,0.010507386527611
352.02,0.0059656922886656
352.05,0.0035957526242726
352.08,0.0018425850949265
352.1,0.001086659734824
352.12,0.0004642356538645
352.15,0.0001957232734953
352.18,0.0001872542504065
352.2,0.0001796911006175
352.23,0.0001500716416017
352.25,0.0001456763865847
352.27,0.0001574874046582
352.3,0.0001623767267752
352.33,0.0001630350277624
352.35,0.0001643798294539
352.38,0.0001645341367611
352.4,0.0001647022617428
352.43,0.0001648817312793
352.45,0.0001649373587963
352.48,0.0001649481713822
352.5,0.0001649562063472
352.52,0.0001649577046009
352.55,0.0001649586671343
352.58,0.0001649588357912
352.6,0.000164958930945
352.62,0.0001649589451121
352.65,0.0001649589510327
352.68,0.0001649589540091
352.7,0.0001649589545771
352.73,0.000164958954651
352.75,0.0001649589546691
359.88,0.0001649589546603
359.9,0.0001649589546062
359.93,0.0001649589541848
359.95,0.0001649589519936
359.98,0.0001649589476613
360.0,0.0001649589373354
360.02,0.0001649588677647
360.05,0.000164958564944
360.08,0.0001649580821008
360.1,0.000164955469663
360.12,0.000164951684013
360.15,0.0001649451660154
360.18,0.0001649036820744
360.2,0.0001647638871472
360.23,0.0001646259677822
360.25,0.000163956141574
360.27,0.0001634655402659
360.3,0.0001606868566756
360.33,0.0001597308373519
360.35,0.0001509720651491
360.38,0.0001541476813968
360.4,0.0001766180045268
360.43,0.000170012002823
360.45,0.0001460003540663
360.48,0.0003615628260125
360.5,0.0009128770896059
360.52,0.0015308865514454
360.55,0.0025668449052029
360.58,0.0055749120248626
360.6,0.0098521854665506
360.62,0.0181865213801564
360.65,0.0310407435712557
360.68,0.0470175390668606
360.7,0.0684363063024744
360.73,0.0992450426212422
360.75,0.1365326385123536
360.77,0.1817752000805992
360.8,0.2317613251299214
360.83,0.2853035625755988
360.85,0.3373723181460397
360.88,0.3845015370692657
360.9,0.4206923738167273
360.93,0.4431939912678068
360.95,0.4512140050989639
360.98,0.4424233476374561
361.0,0.416238856760084
361.02,0.3804738818262744
361.05,0.3349425782751869
361.08,0.2834688782659843
361.1,0.231109104334238
361.12,0.1799677811579728
361.15,0.1343870111355577
361.18,0.0979739026563843
361.2,0.0686177720319338
361.23,0.0442635380359514
361.25,0.0271548069551164
361.27,0.0172081467052448
361.3,0.0106247852477426
361.33,0.0056945211340593
361.35,0.0032777362097734
361.38,0.0013589595383343
361.4,0.0004434953190274
361.43,0.0003002263710174
361.45,0.0002317091338719
361.48,0.0001425877015985
361.5,0.000157049777472
361.52,0.0001462525785905
361.55,0.0001585349943596
361.58,0.0001588801644651
361.6,0.0001631067701624
361.62,0.0001633208154383
361.65,0.0001638719087796
361.68,0.0001646243591341
361.7,0.0001648669945637
361.73,0.0001649034002907
361.75,0.0001649293554577
361.77,0.0001649509587929
361.8,0.0001649569622547
361.83,0.000164958065492
361.85,0.0001649587615548
361.88,0.0001649588694007
361.9,0.0001649589193487
361.93,0.0001649589473283
361.95,0.0001649589434936
361.98,0.0001649589436083
362.0,0.0001649589476726
362.02,0.0001649589556863
362.05,0.0001649589676494
