Wavelength (nm),Normalized
378.12,0.003478905746623
378.17,0.0034788583386644
378.22,0.0034788262459336
378.26,0.0034788094684305
378.31,0.0034788080061552
378.36,0.0034788218591076
378.4,0.0034786735694274
378.45,0.0034779804799802
378.5,0.0034762406821398
378.54,0.003469062866904
378.59,0.003447145137692
378.64,0.003415208136413
378.69,0.0033319392032397
378.73,0.0031998628574246
378.78,0.0032475219937668
378.83,0.0035068335620324
378.87,0.004482478723292
378.92,0.0069136682475888
378.97,0.0116128290814454
379.01,0.0185659798724722
379.06,0.0274352379024306
379.11,0.0367999486513781
379.16,0.0451952935385067
379.2,0.0507664174344712
379.25,0.0521106271916193
379.3,0.0489533584181697
379.34,0.0420702773809277
379.39,0.0330557526721386
379.44,0.0238076732248807
379.48,0.015662165097671
379.53,0.0096739642935312
379.58,0.0058408527154088
379.63,0.0040314220069005
379.67,0.0033448107966534
379.72,0.0031196788903529
379.77,0.0032486369406157
379.81,0.0033690565013659
379.86,0.0034349816542482
379.91,0.0034583858228039
379.95,0.003472917263405
380.0,0.0034773650919846
380.05,0.0034783823468484
380.09,0.0034787630019737
380.14,0.0034788386081374
380.19,0.0034788503056939
380.24,0.0034788532602958
380.28,0.0034788536515771
380.33,0.0034788536929371
380.38,0.0034788537001697
383.99,0.0034788536998781
384.04,0.0034788536939871
384.09,0.0034788536306512
384.13,0.0034788530852029
384.18,0.0034788490262521
384.23,0.0034788330307252
384.27,0.0034787295619085
384.32,0.0034782060295144
384.37,0.0034767929817251
384.42,0.0034705258873239
384.46,0.0034496131098831
384.51,0.0034147692052123
384.56,0.0033129578897814
384.6,0.0031145185956077
384.65,0.0028645144344653
384.7,0.00311768683919
384.74,0.0039956925500195
384.79,0.0065946291195461
384.84,0.0126564548312298
384.89,0.022576798102603
384.93,0.0368438092525349
384.98,0.0541554112186362
385.03,0.0722907679940714
385.07,0.0877684583612076
385.12,0.0968656603069353
385.17,0.0982715416355627
385.21,0.0910385924993534
385.26,0.077071959609499
385.31,0.0595872974175301
385.35,0.0414919451101757
385.4,0.0260858764456979
385.45,0.0147634677412986
385.5,0.0079728093521212
385.54,0.0045308310016717
385.59,0.0029747139730143
385.64,0.0028874733880433
385.68,0.0031061336937734
385.73,0.0032938096513426
385.78,0.0033757378601609
385.82,0.0034435535508772
385.87,0.0034684001987199
385.92,0.0034750331168115
385.97,0.0034779882804726
386.01,0.0034786832964835
386.06,0.0034788094153013
386.11,0.0034788468208261
386.15,0.0034788527762957
386.2,0.0034788535931976
386.25,0.0034788536828288
386.29,0.0034788536992567
387.75,0.0034788537004141
387.8,0.0034788536981449
387.84,0.0034788536724958
387.89,0.0034788534490651
387.94,0.0034788524363338
387.99,0.0034788448395426
388.03,0.0034787996438166
388.08,0.0034786560949536
388.13,0.0034779082868847
388.17,0.0034749130712278
388.22,0.0034686117590116
388.27,0.0034462211861159
388.31,0.0033887633512372
388.36,0.0032737967835123
388.41,0.003212416069846
388.45,0.0031549395934071
388.5,0.0033977566956268
388.55,0.0048170029252535
388.6,0.0077186234623715
388.64,0.0130797040577734
388.69,0.0215166884675247
388.74,0.0325666666691301
388.78,0.0450426103615117
388.83,0.0568109379754201
388.88,0.0652035155966255
388.92,0.0686867630343865
388.97,0.0664297563940702
389.02,0.0589682804499077
389.07,0.0476782225748911
389.11,0.0351697308744685
389.16,0.0236927280888464
389.21,0.01463754511565
389.25,0.0086564122769786
389.3,0.0052833333109788
389.35,0.003570666830202
389.39,0.0031928047980666
389.44,0.0032050146239046
389.49,0.0032538114490383
389.53,0.0033778616736109
389.58,0.0034402079408478
389.63,0.0034613146367376
389.68,0.0034738669327693
389.72,0.003477617790327
389.77,0.0034784631267672
389.82,0.003478777553139
389.86,0.0034788408752277
389.91,0.0034788518211853
389.96,0.0034788533180953
390.0,0.0034788536565459
390.05,0.0034788536964048
390.9,0.0034788536994178
390.94,0.003478853691993
390.99,0.0034788536211072
391.04,0.0034788532939476
391.08,0.0034788507867592
391.13,0.0034788355027815
391.18,0.0034787856545622
391.23,0.0034785186451432
391.27,0.0034774127880049
391.32,0.0034749930792809
391.37,0.003466062683927
391.41,0.0034419930959561
391.46,0.0033903594497023
391.51,0.0033535653602348
391.55,0.0032987565048527
391.6,0.0033413892200355
391.65,0.0038956538837922
391.7,0.005101903793112
391.74,0.0074981991188453
391.79,0.0115719731873993
391.84,0.0171867080167529
391.88,0.0239073419005135
391.93,0.0306842533794691
391.98,0.0361163738376332
392.02,0.0390843210337006
392.07,0.0390344751708292
392.12,0.0370595442516177
392.17,0.0340541606703768
392.21,0.0331955064912373
392.26,0.0381915551972104
392.31,0.0501349947473208
392.35,0.0694713937896237
392.4,0.0931349624220019
392.45,0.1170966666890816
392.49,0.1358543576436216
392.54,0.1445503122941064
392.59,0.1407906514448706
392.63,0.1253231131479207
392.68,0.1018539371171241
392.73,0.0754013790856248
392.78,0.0500271051998481
392.82,0.0296920130394683
392.87,0.0155138997749108
392.92,0.0077283744105349
392.96,0.0042572189176686
393.01,0.0030766570180334
393.06,0.0027140868391378
393.1,0.0030276681515121
393.15,0.003263030649118
393.2,0.0033610420147671
393.25,0.0034390859045529
393.29,0.0034671357394283
393.34,0.0034745567280585
393.39,0.0034778645243991
393.43,0.0034786571148528
393.48,0.0034788195962895
393.53,0.0034788456976806
393.57,0.0034788526005238
393.62,0.0034788535690664
393.67,0.0034788536781521
393.71,0.0034788536986058
393.76,0.0034788536987052
393.81,0.0034788536876226
393.86,0.0034788535745624
393.9,0.0034788526537581
393.95,0.0034788487100413
394.0,0.0034788207455901
394.04,0.0034786635212439
394.09,0.0034779015277651
394.14,0.0034758970425245
394.18,0.0034671322575613
394.23,0.0034381569705964
394.28,0.003390126823763
394.33,0.00324824298626
394.37,0.0029649273167981
394.42,0.002852503657777
394.47,0.0028059790922705
394.51,0.0036118500245356
394.56,0.0068397054179159
394.61,0.0153052044297483
394.65,0.0297193908076188
394.7,0.0514825367486318
394.75,0.0794769980649395
394.8,0.110621344603157
394.84,0.1396843338555859
394.89,0.1601555248893617
394.94,0.1682985149173263
394.98,0.1621039982910099
395.03,0.1428646853098414
395.08,0.1155508235892762
395.12,0.0844482967153018
395.17,0.0557356365640402
395.22,0.0328930093748527
395.26,0.0175470998689301
395.31,0.008682990356639
395.36,0.0040498135393413
395.41,0.0028754807941336
395.45,0.0027927362175514
395.5,0.0028717673148061
395.55,0.0031897863019793
395.59,0.0033648293979005
395.64,0.0034333189996242
395.69,0.0034420641305569
395.73,0.0034005848619449
395.78,0.0032492464252354
395.83,0.0030377847442969
395.88,0.0024817771195391
395.92,0.0015767749511376
395.97,0.0018608215187824
396.02,0.0032981135768034
396.06,0.0091572696705097
396.11,0.0247738640593197
396.16,0.0581565803470136
396.2,0.11018147835188
396.25,0.1827122172178324
396.3,0.2707780261921366
396.35,0.3643817167950727
396.39,0.449770323140131
396.44,0.5112255492934933
396.49,0.539572800059666
396.53,0.5306666885367181
396.58,0.4869825961027327
396.63,0.4203201747194723
396.67,0.339280998858765
396.72,0.2592293448302152
396.77,0.1919261554434681
396.81,0.144330810105307
396.86,0.1202468275101328
396.91,0.1192405148274333
396.96,0.139872993995029
397.0,0.1730592645928109
397.05,0.2077382803576596
397.1,0.2371546052473425
397.14,0.2515983804250561
397.19,0.2467744433828153
397.24,0.2233216830390524
397.28,0.1855679203999949
397.33,0.141502636771912
397.38,0.0985948745481178
397.43,0.0620312442081032
397.47,0.0350116048649778
397.52,0.0170848721296909
397.57,0.0080367161077997
397.61,0.00420227905064
397.66,0.0029522400869533
397.71,0.0025466817977855
397.75,0.0029360060622462
397.8,0.0032166807134797
397.85,0.0033324037442466
397.89,0.0034280343466706
397.94,0.0034633299248107
397.99,0.00347295196752
398.04,0.0034773944957138
398.08,0.0034782680937365
398.13,0.0034778065151773
398.18,0.0034746943804546
398.22,0.0034632223785094
398.27,0.0034283510058623
398.32,0.0033752982608876
398.36,0.0032273112208564
398.41,0.0029564235371032
398.46,0.0029230004617014
398.51,0.0030710379987648
398.55,0.0042513932403839
398.6,0.0085565072876094
398.65,0.0166519727741607
398.69,0.0304627413212957
398.74,0.0508279725026771
398.79,0.0762061674126002
398.83,0.1034754948173806
398.88,0.1277332526929217
398.93,0.1437016799019227
398.98,0.1482336196539725
399.02,0.140928162889138
399.07,0.1262571436922015
399.12,0.1082732975446875
399.16,0.0962909985156559
399.21,0.0989349964592706
399.26,0.1182929548707621
399.3,0.1542447375789978
399.35,0.2007876700144627
399.4,0.2479980534611841
399.44,0.2882912742786735
399.49,0.3137119127090778
399.54,0.3201172125695422
399.59,0.3076413405329373
399.63,0.2807692968066588
399.68,0.245658467296352
399.73,0.2076603609640783
399.77,0.1731582297389995
399.82,0.1450525040384617
399.87,0.1234293712302849
399.91,0.1086894522480272
399.96,0.0978453776725009
400.01,0.0884859055621398
400.06,0.0803305511545184
400.1,0.072593230535291
400.15,0.0674006921688157
400.2,0.0668816888768421
400.24,0.0730633776158551
400.29,0.0858862540258046
400.34,0.1032000184429863
400.38,0.1208299702386235
400.43,0.1332302780015816
400.48,0.1359685934876841
400.52,0.1281601432355378
400.57,0.1109874855786938
400.62,0.0880681248238665
400.67,0.0632286272700085
400.71,0.0410179175937024
400.76,0.0238314877466791
400.81,0.0127540656331292
400.85,0.0067194892102872
400.9,0.003908047250215
400.95,0.0026625546000282
400.99,0.0025755955546127
401.04,0.0026357237709008
401.09,0.0032833717311326
401.14,0.004796228119173
401.18,0.0082447726141527
401.23,0.0153806439572019
401.28,0.0264871913880028
401.32,0.0418855532983116
401.37,0.0603963049168139
401.42,0.0789238204794465
401.46,0.094583248436686
401.51,0.1040261143417531
401.56,0.1049569629686754
401.61,0.0972041211069001
401.65,0.0826711745743005
401.7,0.0645211496609321
401.75,0.0456641164904693
401.79,0.0294490245423932
401.84,0.0173889575740356
401.89,0.0094355503663845
401.93,0.0054311281910157
401.98,0.0036905076179333
402.03,0.0029779376200915
402.07,0.003089193798758
402.12,0.0032563953376292
402.17,0.0033388671426923
402.22,0.0034255948786881
402.26,0.0034610062360962
402.31,0.0034711983339886
402.36,0.0034751492348984
402.4,0.003471222656615
402.45,0.0034541131152328
402.5,0.0034249987883119
402.54,0.003336991311587
402.59,0.0031525594304926
402.64,0.0030525984046899
402.69,0.0029184467240616
402.73,0.0031634121739514
402.78,0.0052880993020488
402.83,0.0095859180596123
402.87,0.0179010151412872
402.92,0.0321256581846847
402.97,0.0542674510386319
403.01,0.0831309390835784
403.06,0.1182128557385178
403.11,0.1577356141020788
403.16,0.198141742876859
403.2,0.2356878916718934
403.25,0.2649170847446441
403.3,0.2819018840050015
403.34,0.2836658437815597
403.39,0.26867525485307
403.44,0.2400661849026771
403.48,0.2004147342673699
403.53,0.1568428858472896
403.58,0.1169804765965628
403.62,0.0863560252893579
403.67,0.0692007303784149
403.72,0.0655662040665561
403.77,0.0741139114334971
403.81,0.088428155014807
403.86,0.1016204595464148
403.91,0.1103115786846934
403.95,0.1104122976435992
404.0,0.1016857765428993
404.05,0.0873803646613441
404.09,0.0707640539801179
404.14,0.0577805157980331
404.19,0.0536095107031966
404.24,0.0598645463954923
404.28,0.0762681446485817
404.33,0.0985943684478765
404.38,0.1226301838294943
404.42,0.141631579588332
404.47,0.1501176404382612
404.52,0.146949427873456
404.56,0.1318692065878803
404.61,0.1084832289269441
404.66,0.0817220111317164
404.7,0.0556348537162425
404.75,0.0342069603506452
404.8,0.0187005112131159
404.85,0.0093999108375033
404.89,0.0042838574963514
404.94,0.0018327476335517
404.99,0.0012761689041107
405.03,0.0022423004847343
405.08,0.0069057573997285
405.13,0.0208773748758701
405.17,0.0458710313148523
405.22,0.0862178073091102
405.27,0.1427378896612766
405.32,0.2106433082697719
405.36,0.280994761958697
405.41,0.3400632744940675
405.46,0.3778850474848539
405.5,0.386635570765313
405.55,0.3656603464838288
405.6,0.3218637594912647
405.64,0.2639249278360196
405.69,0.2057834055395934
405.74,0.1571085884739554
405.79,0.1220025193124525
405.83,0.1010586131152052
405.88,0.0934842718063465
405.93,0.0986483733523346
405.97,0.1166523883460972
406.02,0.1506647047337112
406.07,0.1997887483996431
406.11,0.2612692795650689
406.16,0.3255421311210551
406.21,0.3777828252579047
406.25,0.4080714214297532
406.3,0.4076190630210357
406.35,0.3749271922282509
406.4,0.3155330718346863
406.44,0.2423964257511729
406.49,0.1690842706181494
406.54,0.1054084833054588
406.58,0.0584974225741038
406.63,0.0283534349002276
406.68,0.0108283097935336
406.72,0.0042632117132616
406.77,0.0022947006630833
406.82,0.0017445106291555
406.87,0.002508302964343
406.91,0.0030245394612747
406.96,0.0032314668513174
407.01,0.0033938686411951
407.05,0.0034538656980041
407.1,0.0034723675695865
407.15,0.0034766812727574
407.19,0.0034782739729163
407.24,0.0034781269413068
407.29,0.0034769472588441
407.34,0.0034718535867401
407.38,0.0034559599354972
407.43,0.0034315956683737
407.48,0.0033624415647637
407.52,0.003231462339083
407.57,0.0032032443690178
407.62,0.0032311383759503
407.66,0.0036988435248547
407.71,0.0053434818765053
407.76,0.0095144206772211
407.8,0.016517036177507
407.85,0.0270714294978078
407.9,0.0408165230201193
407.95,0.0563443010257373
407.99,0.0712745136987117
408.04,0.0824465136706655
408.09,0.0879031386506599
408.13,0.0863717469676448
408.18,0.0782017482238342
408.23,0.065254032919223
408.27,0.0497178516452426
408.32,0.03468972611371
408.37,0.0221488079194132
408.42,0.013151633304019
408.46,0.0075502939208186
408.51,0.0044018227930917
408.56,0.0033601703431807
408.6,0.0031656429726167
408.65,0.0032302370492529
408.7,0.0032859336111803
408.74,0.0033944354697924
408.79,0.0034464054729581
408.84,0.0034628291373341
408.88,0.0034693035724919
408.93,0.0034592221533983
408.98,0.0034373628170933
409.03,0.003368239573483
409.07,0.0032195087136642
409.12,0.0031301232154894
409.17,0.0029998452842091
409.21,0.0031671259375219
409.26,0.0044152124190922
409.31,0.00856084654598
409.35,0.0160524808782473
409.4,0.0283038940754967
409.45,0.0460257539254928
409.5,0.0673904924951415
409.54,0.0900232677247339
409.59,0.1124835379354561
409.64,0.1317346139890639
409.68,0.1504208496026091
409.73,0.1757681536069644
409.78,0.2189537874122354
409.82,0.2824361705220828
409.87,0.3689031461980527
409.92,0.4683639950239056
409.97,0.5665623492380012
410.01,0.6423547438103347
410.06,0.6745174141429185
410.11,0.655352876219674
410.15,0.5865662118187941
410.2,0.4814195522725014
410.25,0.3620963986066063
410.29,0.2454178341697562
410.34,0.1488520014908467
410.39,0.0783045782721623
410.43,0.0360015087506223
410.48,0.0137254372052805
410.53,0.0027720162025845
410.58,0.0010382661432185
410.62,0.0014567906990207
410.67,0.0018731399662093
410.72,0.002754239474879
410.76,0.0032061102522184
410.81,0.0033885651477769
410.86,0.0034419269453343
410.9,0.0034691024458257
410.95,0.0034755764033827
411.0,0.0034747836760885
411.05,0.0034650371211634
411.09,0.0034302637666224
411.14,0.00336974378271
411.19,0.0031803877016308
411.23,0.0027650677135029
411.28,0.0024861774630813
411.33,0.0020314341892644
411.37,0.0022828215959762
411.42,0.0054174374654371
411.47,0.0167864085320113
411.51,0.0379322657625624
411.56,0.0738120852757492
411.61,0.1270206785858967
411.66,0.1940596310323204
411.7,0.2678120908698005
411.75,0.3348881239279606
411.8,0.3844682340637836
411.84,0.4057384746987793
411.89,0.3939186538907687
411.94,0.3517815495457485
411.98,0.2868433515537665
412.03,0.2133983726673242
412.08,0.1439082214147416
412.13,0.0865510642961982
412.17,0.0457562440219626
412.22,0.0198267965865484
412.27,0.0078301684065274
412.31,0.0033750167536711
412.36,0.0022769170459755
412.41,0.0020388868540535
412.45,0.0027204439337771
412.5,0.0031399519240056
412.55,0.0033004253631613
412.6,0.0034199202545044
412.64,0.0034616064219449
412.69,0.0034724894169776
412.74,0.0034773623878751
412.78,0.0034785485099571
412.83,0.0034787984918042
412.88,0.0034788401469527
412.92,0.0034788517006178
412.97,0.0034788533074474
413.02,0.0034788529584126
413.06,0.0034788486830259
413.11,0.0034788217061168
413.16,0.0034787305755363
413.21,0.003478217022595
413.25,0.0034759361626035
413.3,0.0034704681965728
413.35,0.0034481624237462
413.39,0.003379148034853
413.44,0.0032000550518324
413.49,0.0029870042687155
413.53,0.0024602790463554
413.58,0.0016855459889343
413.63,0.0023186252190916
413.68,0.0042007935687631
413.72,0.0103232160403296
413.77,0.028007296785093
413.82,0.0582305656881255
413.86,0.1076848808508113
413.91,0.1822250681756979
413.96,0.2865361086201691
414.0,0.4141130807505264
414.05,0.5592731277680352
414.1,0.7080632163477399
414.15,0.8439416104305993
414.19,0.9481392568611124
414.24,1.0
414.29,0.9906724723355608
414.33,0.9206345878332488
414.38,0.798799222722208
414.43,0.6471993507881721
414.47,0.48333025606456
414.52,0.3308222223238231
414.57,0.2040656211464341
414.61,0.1129664703107291
414.66,0.0543322479043734
414.71,0.0194736774198927
414.76,0.0059617272416955
414.8,0.0014715244340593
414.85,0.0
414.9,0.001409494615265
414.94,0.0025087319576319
414.99,0.0030839124483352
415.04,0.0032858232014405
415.08,0.0034191637551016
415.13,0.0034624924249997
415.18,0.0034731447229384
415.23,0.0034776052120961
415.27,0.0034786113675454
415.32,0.0034787897982021
415.37,0.0034788385042263
415.41,0.0034788198826039
415.46,0.0034787308648517
415.51,0.0034782312931004
415.55,0.003476054594086
415.6,0.0034678536562476
415.65,0.0034511879969738
415.69,0.0033919460903669
415.74,0.0032367955335726
415.79,0.0030610228304727
415.84,0.002644140182461
415.88,0.0021108428953003
415.93,0.0029190341260496
415.98,0.0052070224442692
416.02,0.0117210327868847
416.07,0.026454223717633
416.12,0.0544721219849155
416.16,0.0958156075350672
416.21,0.1501671881529708
416.26,0.2115020626667809
416.31,0.2718327566330663
416.35,0.3201637637699518
416.4,0.345567791088477
416.45,0.3434478073303139
416.49,0.3142770663299829
416.54,0.2643671266582107
416.59,0.204128044351935
416.63,0.1424667953132287
416.68,0.0895328941726462
416.73,0.0510926391271163
416.78,0.0293245035889227
416.82,0.0235619134531677
416.87,0.0338517205738696
416.92,0.0596978464967162
416.96,0.0985795612576493
417.01,0.1466743172942855
417.06,0.1983770293801139
417.1,0.2454987826484449
417.15,0.2788857520572504
417.2,0.2910511491339646
417.24,0.2798449122323229
417.29,0.2478845316694422
417.34,0.2021434674627784
417.39,0.1494425853961521
417.43,0.1001180433549357
417.48,0.0638579027893036
417.53,0.0446678719454903
417.57,0.0480113279824515
417.62,0.0784835107640967
417.67,0.1396921383221779
417.71,0.2283495634458439
417.76,0.3359992770294516
417.81,0.4457202684866171
417.86,0.5417308666082611
417.9,0.604648396750812
417.95,0.6198087296958654
418.0,0.5844638914601407
418.04,0.5068975153242931
418.09,0.4034283901692984
418.14,0.2937375768181034
418.18,0.1926636712727793
418.23,0.1128479438891262
418.28,0.0565898849150893
418.33,0.0243528967686115
418.37,0.0076008221922183
418.42,0.0001437169998919
418.47,0.0002761235964286
418.51,0.0050553947869308
418.56,0.0195207982336185
418.61,0.0450386793155784
418.65,0.0884448112247276
418.7,0.1536270272018497
418.75,0.2390679522857107
418.79,0.336464074981228
418.84,0.4328708343412348
418.89,0.5108904457921587
418.94,0.5586976266520981
418.98,0.568107583514249
419.03,0.537948894755815
419.08,0.4739476336263309
419.12,0.3904292179995626
419.17,0.3016271659628906
419.22,0.2188616496084105
419.26,0.1498375314928466
419.31,0.0969794301379044
419.36,0.05822349005599
419.41,0.0340648301153146
419.45,0.0189051227803118
419.5,0.0093392627410169
419.55,0.0053762831601571
419.59,0.0037593911779813
419.64,0.003211281677799
419.69,0.0029821235937273
419.73,0.0031859702355066
419.78,0.0033300030068728
419.83,0.0033861348351765
419.87,0.003427038508092
419.92,0.0034042538000667
419.97,0.0033415914747289
420.02,0.0031436763152501
420.06,0.0027435522368347
420.11,0.0025930328763886
420.16,0.00246043375005
420.2,0.0033556707312079
420.25,0.0074466401818206
