Wavelength (nm),Normalized
210.62,0.0001344103274306
210.64,0.000134410223793
210.67,0.0001344101532639
210.69,0.0001344101158432
210.72,0.0001344101115308
210.74,0.000134410140327
210.77,0.0001344099238295
210.79,0.0001344079961717
210.82,0.0001344029285538
210.84,0.0001343676101831
210.87,0.0001342961999547
210.89,0.0001339046143028
210.92,0.0001333324250846
210.94,0.0001308482682107
210.97,0.0001287440262224
210.99,0.0001281689637384
211.02,0.0001215953118741
211.04,0.0001346645584361
211.07,0.0001604143120928
211.09,0.0002607740259093
211.11,0.000437335160533
211.14,0.000749180427546
211.16,0.0011854167566544
211.19,0.0017106707053498
211.21,0.0022718963173586
211.24,0.0027363459551962
211.26,0.003035092094772
211.29,0.0030847581282316
211.31,0.0028732704590114
211.34,0.002462580875737
211.36,0.0018993197225393
211.39,0.0013474895370064
211.41,0.0008905794055093
211.44,0.0005531450864649
211.46,0.0005532275378939
211.49,0.0008366254054952
211.51,0.0016951945967418
211.53,0.0030574214184829
211.56,0.0049745045162623
211.58,0.0072622427213802
211.61,0.0094941280823807
211.63,0.0113998326368366
211.66,0.0124257450022255
211.68,0.0124182210016761
211.71,0.0113824489221228
211.73,0.0094606070232108
211.76,0.0072020236433816
211.78,0.0048657710174496
211.81,0.0030778203942608
211.83,0.0020962545914819
211.86,0.0018642584214513
211.88,0.0028216893372864
211.91,0.0046638585434329
211.93,0.0074660995723788
211.95,0.0108045677768861
211.98,0.0140715050595855
212.0,0.0168177332640294
212.03,0.0182457526342446
212.05,0.0183257280591223
212.08,0.0168101526550362
212.1,0.0140220401091632
212.13,0.010700305606761
212.15,0.0073001639794974
212.18,0.0044492860585999
212.2,0.0023851827102427
212.23,0.0010378135769349
212.25,0.0004171807017283
212.28,9.042266675852769e-05
212.3,6.76101855005461e-05
212.33,5.298100368612918e-05
212.35,9.890083533272432e-05
212.38,0.0001118567384148
212.4,0.0001275262878891
212.42,0.0001311550869078
212.45,0.0001336716615046
212.47,0.0001341342930004
212.5,0.0001343644909258
212.52,0.0001343959638836
212.55,0.0001344061638389
212.57,0.0001344097317534
212.6,0.0001344100997824
212.62,0.0001344102024337
212.65,0.00013441021071
212.67,0.0001344102125713
222.61,0.0001344102126884
222.63,0.0001344102127098
222.66,0.0001344102127108
222.68,0.000134410212711
222.71,0.000134410212711
222.73,0.000134410212711
222.76,0.000134410212711
222.78,0.000134410212711
222.81,0.000134410212711
222.83,0.000134410212711
222.86,0.000134410212711
222.88,0.000134410212711
222.9,0.000134410212711
222.93,0.000134410212711
222.95,0.000134410212711
222.98,0.000134410212711
223.0,0.000134410212711
223.03,0.000134410212711
223.05,0.000134410212711
223.08,0.000134410212711
223.1,0.000134410212711
223.13,0.000134410212711
223.15,0.000134410212711
223.18,0.000134410212711
223.2,0.000134410212711
223.23,0.000134410212711
223.25,0.000134410212711
223.28,0.000134410212711
223.3,0.000134410212711
223.33,0.000134410212711
223.35,0.000134410212711
223.37,0.000134410212711
223.4,0.000134410212711
223.42,0.000134410212711
223.45,0.000134410212711
223.47,0.000134410212711
223.5,0.000134410212711
223.52,0.000134410212711
223.55,0.000134410212711
223.57,0.000134410212711
223.6,0.000134410212711
223.62,0.000134410212711
223.65,0.000134410212711
223.67,0.000134410212711
223.7,0.000134410212711
223.72,0.000134410212711
223.75,0.000134410212711
223.77,0.000134410212711
223.79,0.000134410212711
223.82,0.000134410212711
223.84,0.000134410212711
223.87,0.000134410212711
223.89,0.000134410212711
223.92,0.000134410212711
223.94,0.000134410212711
223.97,0.0001344102127109
225.52,0.0001344102127095
225.55,0.0001344102127022
225.57,0.0001344102125948
225.6,0.0001344102121424
225.62,0.0001344102067836
225.65,0.0001344101881145
225.67,0.0001344100096844
225.7,0.0001344095005513
225.72,0.0001344055644403
225.75,0.0001343965063345
225.77,0.0001343396674647
225.8,0.0001342375090711
225.82,0.0001337127024218
225.85,0.0001330269953921
225.87,0.000132135840766
225.9,0.0001274653645144
225.92,0.0001256155940682
225.95,0.0001173807449994
225.97,0.0001328997871986
225.99,0.0001606185493033
226.02,0.0002771169943843
226.04,0.0004780306975692
226.07,0.000858036343349
226.09,0.0014055552544159
226.12,0.0021239290321287
226.14,0.0029502616344073
226.17,0.003741842362274
226.19,0.0043948384821808
226.22,0.0047478162492688
226.24,0.0047462828988134
226.27,0.0043908325733505
226.29,0.0037264478190498
226.32,0.002929742550279
226.34,0.0021007118911204
226.37,0.0013552611379664
226.39,0.0008487841608481
226.41,0.000528989525133
226.44,0.0006856484708208
226.46,0.0011991350500211
226.49,0.0024814135204879
226.51,0.0044234929380512
226.54,0.0071667600286381
226.56,0.0104887352399881
226.59,0.0138844584551529
226.61,0.0169377948508134
226.64,0.0189240202401968
226.66,0.0195480028098006
226.69,0.0186437838311188
226.71,0.0163405314666738
226.74,0.0132307589138012
226.76,0.0097284584892845
226.79,0.0064932243963385
226.81,0.0039463415960477
226.84,0.0021126661177048
226.86,0.0015156316285769
226.88,0.001737918219881
226.91,0.003552053940173
226.93,0.0065658677971284
226.96,0.011245402340968
226.98,0.0171429118549954
227.01,0.0235777044151224
227.03,0.029802108002086
227.06,0.0344030331074086
227.08,0.0367230021914255
227.11,0.0361514242733418
227.13,0.0327777259269099
227.16,0.0274761285780816
227.18,0.020966032020307
227.21,0.0147081733353168
227.23,0.0092976478038539
227.26,0.0052056284240114
227.28,0.0026449443128404
227.3,0.0010479122328793
227.33,0.0004412510176354
227.35,0.0001001230916536
227.38,9.694908687792556e-05
227.4,5.881178728673892e-05
227.43,7.330642193046778e-05
227.45,0.0001122205705729
227.48,0.0001219216101425
227.5,0.0001309543033755
227.53,0.0001328654023922
227.55,0.0001340637540232
227.58,0.0001342481692039
227.6,0.0001342785269955
227.63,0.0001338187622651
227.65,0.0001329896943896
227.68,0.0001287618662116
227.7,0.0001234214524627
227.72,0.0001008227104056
227.75,8.558370585446956e-05
227.77,2.6467826351335875e-05
227.8,5.99074280872488e-05
227.82,9.952751372440668e-05
227.85,0.0005730467496806
227.87,0.0014217108021785
227.9,0.0033601098439205
227.92,0.0063490210803727
227.95,0.0107807811549334
227.97,0.0163589528387745
228.0,0.0224259047157135
228.02,0.0282777041420069
228.05,0.0326075658673805
228.07,0.0345918961045156
228.1,0.0342983591723859
228.12,0.031215529777516
228.15,0.0264762954766186
228.17,0.0205126820676763
228.19,0.0146952611954142
228.22,0.0095858123485452
228.24,0.0056312013024255
228.27,0.0030360462177857
228.29,0.0012723222019871
228.32,0.0003681570160942
228.34,0.0001360154873939
228.37,6.444103369285026e-06
228.39,6.31816883612971e-05
228.42,7.578641822656961e-05
228.44,0.0001128560677514
228.47,0.0001221354032307
228.49,0.0001309483619238
228.52,0.0001327155132511
228.54,0.000133734104791
228.57,0.0001330203999301
228.59,0.0001320697180944
228.61,0.0001277658104791
228.64,0.000125643462506
228.66,0.000116944756635
228.69,0.000128152506475
228.71,0.0001466748408674
228.74,0.0002454586572236
228.76,0.0004176754196549
228.79,0.0007671685727652
228.81,0.0012839785303279
228.84,0.0019995003746431
228.86,0.0028576765556157
228.89,0.0037330035690869
228.91,0.004484292621784
228.94,0.0050360369101565
228.96,0.0052029062962366
228.99,0.0050270287838854
229.01,0.0044662763692418
229.03,0.0037059791902736
229.06,0.0028216440505313
229.08,0.0019954467178211
229.11,0.0013001931576158
229.13,0.0007671685727652
229.16,0.0004176754196549
229.18,0.0002454586572236
229.21,0.0001466748497278
229.23,0.0001281543800176
229.26,0.0001169445410848
229.28,0.0001256422268707
229.31,0.0001277690851198
229.33,0.0001320872114677
229.36,0.0001331421383892
229.38,0.0001340692309173
229.41,0.0001342609761479
229.43,0.0001343786490865
229.46,0.0001343987682893
229.48,0.0001344082949062
229.5,0.0001344096278798
229.53,0.0001344101349172
229.55,0.0001344101926834
229.58,0.0001344102106454
229.6,0.0001344102122572
229.63,0.0001344102126174
229.65,0.0001344102127038
229.68,0.0001344102127094
230.42,0.0001344102127088
230.44,0.0001344102126822
230.47,0.0001344102125668
230.49,0.0001344102111498
230.52,0.000134410206033
230.54,0.0001344101548949
230.57,0.0001344100020807
230.59,0.0001344087557339
230.62,0.0001344057083621
230.64,0.0001343853621488
230.67,0.0001343456416322
230.69,0.0001342600321603
230.72,0.0001337695976267
230.74,0.0001331303241729
230.77,0.0001303586039184
230.79,0.0001283241537673
230.81,0.0001203547202604
230.84,0.0001231620173685
230.86,0.0001242246619193
230.89,0.0001794842344339
230.91,0.0002785571732482
230.94,0.0005248486396216
230.96,0.000912333178866
230.99,0.0015185986247896
231.01,0.0023080503090858
231.04,0.0032143747280784
231.06,0.0041403436553552
231.09,0.0048952113461939
231.11,0.0053414074682728
231.14,0.0054623009530568
231.16,0.0051457563803856
231.19,0.0045308469137013
231.21,0.0036642373544486
231.23,0.002742952406709
231.26,0.0018929249373815
231.28,0.0011751052578838
231.31,0.0007848589526477
231.33,0.0006144552306864
231.36,0.0010298283012508
231.38,0.0019797598289033
231.41,0.0037870237763678
231.43,0.0063905765513558
231.46,0.0097445458706357
231.48,0.0135602387619998
231.51,0.0171852451259961
231.53,0.0200158346790923
231.56,0.0217987471507846
231.58,0.0218376248454781
231.61,0.0204550940516952
231.63,0.0175959393856202
231.65,0.0141014903061321
231.68,0.0103336249044232
231.7,0.0069361854689173
231.73,0.0042529772298207
231.75,0.0022226243278925
231.78,0.001182015918251
231.8,0.0010047945706692
231.83,0.0018132837484457
231.85,0.0036108159660534
231.88,0.0066558309204783
231.9,0.0108515232503832
231.93,0.0159144446328148
231.95,0.0213800587944041
231.98,0.0262041417688177
232.0,0.0295541236385424
232.03,0.0311951088967315
232.05,0.03029811610896
232.08,0.0275150210401952
232.1,0.0229338473592784
232.12,0.0177977873752357
232.15,0.0126276614142208
232.17,0.0082141584980491
232.2,0.0048785131351219
232.22,0.0024521263298902
232.25,0.0010034171297129
232.27,0.0004135912311918
232.3,8.311710982549806e-05
232.32,7.16476370971698e-05
232.35,5.260868016551088e-05
232.37,9.829464901063776e-05
232.4,0.0001096321081407
232.42,0.0001255902167269
232.45,0.0001270321556212
232.47,0.0001280733633419
232.5,0.0001207109565178
232.52,0.0001219080220517
232.54,0.0001182720678608
232.57,0.000163753992801
232.59,0.0002450004005495
232.62,0.0004725634934487
232.64,0.0008399075729105
232.67,0.0014511013007248
232.69,0.0022754816992887
232.72,0.0032751409389922
232.74,0.0043513767341595
232.77,0.0053025529092042
232.79,0.0060015529885054
232.82,0.0062763106847202
232.84,0.0060858848023175
232.87,0.0054793691372275
232.89,0.00453549274407
232.92,0.0034992173416144
232.94,0.0024722789851006
232.97,0.0016111877646217
232.99,0.0009793467616276
233.01,0.0005445382156108
233.04,0.0003206479809315
233.06,0.0001850097686332
233.09,0.0001470108092738
233.11,0.0001128783789112
233.14,0.0001047732803802
233.16,9.757416307343808e-05
233.19,0.0001101350845008
233.21,0.0001223560106925
233.24,0.0002543181691011
233.26,0.0004803907085128
233.29,0.0010313520282707
233.31,0.0019563686046243
233.34,0.0032219191076675
233.36,0.0049424030984129
233.39,0.0070035581313439
233.41,0.0091660324336943
233.43,0.0112332019907151
233.46,0.0127174655416808
233.48,0.0135417952387689
233.51,0.0133493240686801
233.53,0.0123996091298559
233.56,0.0106823698366585
233.58,0.008504356024243
233.61,0.0062897379614611
233.63,0.0042780185902359
233.66,0.0026527889879176
233.68,0.0015302199444998
233.71,0.000767958895555
233.73,0.0003984433432634
233.76,0.0001778161192099
233.78,0.0001314239900557
233.81,0.0001012281782129
233.83,0.0001169820835832
233.85,0.0001199812432098
233.88,0.0001292130078469
233.9,0.0001314246654893
233.93,0.0001336150049338
233.95,0.0001340175397288
233.98,0.0001342398086754
234.0,0.000134374203823
234.03,0.0001343967711437
234.05,0.0001344054920837
234.08,0.000134401835408
234.1,0.0001343678934858
234.13,0.0001343006612087
234.15,0.0001339290316605
234.18,0.000133373822091
234.2,0.0001324865501986
234.23,0.0001277813741733
234.25,0.0001241201715064
234.28,0.0001091649992203
234.3,0.0001122286663763
234.32,0.0001081247114261
234.35,0.0002002888084809
234.37,0.0003635040530617
234.4,0.0008064004689527
234.42,0.0015148977124095
234.45,0.0026811355430786
234.47,0.0042455218977748
234.5,0.0061336997396655
234.52,0.0081596056791493
234.55,0.0099465462108021
234.57,0.0112573787186825
234.6,0.0117725303245009
234.62,0.011368921965296
234.65,0.0102901766932036
234.67,0.0085630053254832
234.7,0.0066458395301511
234.72,0.0047280411969907
234.74,0.0031028945875735
234.77,0.0018917795516649
234.79,0.0010374061635038
234.82,0.0005686700850784
234.84,0.0002586324118185
234.87,0.0001240824840535
234.89,0.0001140775842935
234.92,0.0001039503428423
234.94,0.0001206169788221
234.97,0.0001247238351057
234.99,0.0001311865530636
235.02,0.0001327092540031
235.04,0.0001339662884096
235.07,0.0001342194465076
235.09,0.0001343705202011
235.12,0.0001343959283605
235.14,0.0001344078300296
235.16,0.000134409485436
235.19,0.0001344101153717
235.21,0.0001344101874272
235.24,0.0001344102100592
235.26,0.0001344102121184
235.29,0.0001344102125864
235.31,0.0001344102127007
242.16,0.0001344102127071
242.18,0.0001344102126837
242.21,0.0001344102125779
242.23,0.0001344102112981
242.26,0.0001344102067055
242.28,0.0001344101605864
242.31,0.0001344100210518
242.33,0.0001344088536085
242.36,0.0001344059039638
242.38,0.0001343852955414
242.41,0.0001343425413107
242.43,0.0001340915730133
242.46,0.000133677777641
242.48,0.0001329253345635
242.51,0.0001287880482958
242.53,0.0001245068627167
242.56,0.0001064158087009
242.58,9.945841662110697e-05
242.6,6.486940878768758e-05
242.63,0.0001176040988075
242.65,0.0001931122808967
242.68,0.000615457997582
242.7,0.0013288156912465
242.73,0.0028597478093488
242.75,0.0051464891397718
242.78,0.0085330348463567
242.8,0.0127911854873972
242.83,0.0175596804467608
242.85,0.0223316319669263
242.88,0.0261852296261218
242.9,0.0286055137949903
242.93,0.0290160480742298
242.95,0.027253861676671
242.98,0.0240598213021401
243.0,0.0195825511891633
243.03,0.0148923575214835
243.05,0.0104189001102571
243.07,0.0067123084264666
243.1,0.0040289300174656
243.12,0.0021406890694663
243.15,0.0011188530239669
243.17,0.0004304140546773
243.2,0.0001272013656433
243.22,9.880213730991074e-05
243.25,7.11136066738e-05
243.27,0.0001050701605332
243.3,0.0001127529715675
243.32,0.0001269291652212
243.35,0.0001302198736201
243.37,0.0001330880595481
243.4,0.0001330021835544
243.42,0.0001323637653394
243.45,0.000127582473426
243.47,0.0001227659092835
243.49,0.0001024968695739
243.52,9.54026499531951e-05
243.54,5.833273776516601e-05
243.57,0.0001206392459257
243.59,0.000211374747681
243.62,0.0006906059183663
243.64,0.0014966506697033
243.67,0.0032094062788049
243.69,0.0057575989000353
243.72,0.0095168706477311
243.74,0.014230098291185
243.77,0.0194984310417061
243.79,0.0245925978238676
243.82,0.029050670290693
243.84,0.0316909693294043
243.87,0.0324975067464887
243.89,0.0308106194241041
243.91,0.0274476471471502
243.94,0.0225669089654595
243.96,0.0173464103499325
243.99,0.0122557619056138
244.01,0.0079041632761996
244.04,0.0045761032478399
244.06,0.0024530120305241
244.09,0.001067426699262
244.11,0.0004809232019923
244.14,0.0001350420909279
244.16,9.834462491379656e-05
244.19,6.475917728177827e-05
244.21,0.0001017675271964
244.24,0.0001099584153194
244.26,0.0001259105765816
244.29,0.0001296761833975
244.31,0.0001331012382981
244.34,0.0001338143076313
244.36,0.0001342768426381
244.38,0.0001343590227644
244.41,0.0001344009059694
244.43,0.0001344071772148
244.46,0.0001344097781097
244.48,0.0001344100885833
244.51,0.0001344101795572
244.53,0.0001344102089802
244.56,0.0001344102118475
244.58,0.0001344102126315
244.61,0.000134410212695
253.73,0.0001344102127098
253.75,0.0001344102127108
253.78,0.000134410212711
253.8,0.000134410212711
253.83,0.000134410212711
253.85,0.000134410212711
253.88,0.000134410212711
253.9,0.000134410212711
253.93,0.000134410212711
253.95,0.000134410212711
253.98,0.000134410212711
254.0,0.000134410212711
254.02,0.000134410212711
254.05,0.000134410212711
254.07,0.000134410212711
254.1,0.000134410212711
254.12,0.000134410212711
254.15,0.000134410212711
254.17,0.000134410212711
254.2,0.000134410212711
254.22,0.000134410212711
254.25,0.000134410212711
254.27,0.000134410212711
254.3,0.000134410212711
254.32,0.000134410212711
254.35,0.000134410212711
254.37,0.000134410212711
254.4,0.000134410212711
254.42,0.000134410212711
254.44,0.000134410212711
254.47,0.000134410212711
254.49,0.000134410212711
254.52,0.000134410212711
254.54,0.000134410212711
254.57,0.000134410212711
254.59,0.000134410212711
254.62,0.000134410212711
254.64,0.000134410212711
254.67,0.000134410212711
254.69,0.000134410212711
254.72,0.000134410212711
254.74,0.000134410212711
254.77,0.000134410212711
254.79,0.000134410212711
254.82,0.000134410212711
254.84,0.000134410212711
254.86,0.000134410212711
254.89,0.000134410212711
254.91,0.000134410212711
254.94,0.000134410212711
254.96,0.000134410212711
254.99,0.000134410212711
255.01,0.000134410212711
255.04,0.000134410212711
255.06,0.000134410212711
255.09,0.000134410212711
255.11,0.000134410212711
255.14,0.000134410212711
255.16,0.000134410212711
255.19,0.000134410212711
255.21,0.000134410212711
255.24,0.000134410212711
255.26,0.000134410212711
255.29,0.000134410212711
255.31,0.000134410212711
255.33,0.000134410212711
255.36,0.000134410212711
255.38,0.000134410212711
255.41,0.000134410212711
255.43,0.000134410212711
255.46,0.000134410212711
255.48,0.000134410212711
255.51,0.000134410212711
255.53,0.000134410212711
255.56,0.000134410212711
255.58,0.000134410212711
255.61,0.000134410212711
255.63,0.000134410212711
255.66,0.000134410212711
255.68,0.000134410212711
255.71,0.000134410212711
255.73,0.000134410212711
255.75,0.000134410212711
255.78,0.000134410212711
255.8,0.000134410212711
255.83,0.000134410212711
255.85,0.000134410212711
255.88,0.000134410212711
255.9,0.000134410212711
255.93,0.000134410212711
255.95,0.000134410212711
255.98,0.000134410212711
256.0,0.000134410212711
256.03,0.000134410212711
256.05,0.000134410212711
256.08,0.000134410212711
256.1,0.000134410212711
256.13,0.000134410212711
256.15,0.000134410212711
256.18,0.000134410212711
256.2,0.000134410212711
256.22,0.000134410212711
256.25,0.000134410212711
256.27,0.000134410212711
256.3,0.000134410212711
256.32,0.000134410212711
256.35,0.000134410212711
256.37,0.000134410212711
256.4,0.000134410212711
256.42,0.000134410212711
256.45,0.000134410212711
256.47,0.000134410212711
256.5,0.000134410212711
256.52,0.000134410212711
256.55,0.000134410212711
256.57,0.000134410212711
256.6,0.000134410212711
256.62,0.000134410212711
256.64,0.000134410212711
256.67,0.000134410212711
256.69,0.000134410212711
256.72,0.000134410212711
256.74,0.000134410212711
256.77,0.000134410212711
256.79,0.000134410212711
256.82,0.000134410212711
256.84,0.000134410212711
256.87,0.000134410212711
256.89,0.000134410212711
256.92,0.000134410212711
256.94,0.000134410212711
256.97,0.000134410212711
256.99,0.000134410212711
257.02,0.000134410212711
257.04,0.000134410212711
257.06,0.000134410212711
257.09,0.000134410212711
260.33,0.000134410212711
260.35,0.000134410212711
260.38,0.000134410212711
260.4,0.000134410212711
260.43,0.000134410212711
260.45,0.000134410212711
260.48,0.000134410212711
260.5,0.000134410212711
260.53,0.000134410212711
260.55,0.000134410212711
260.57,0.000134410212711
260.6,0.000134410212711
260.62,0.000134410212711
260.65,0.000134410212711
260.67,0.000134410212711
260.7,0.000134410212711
260.72,0.000134410212711
260.75,0.000134410212711
260.77,0.000134410212711
260.8,0.000134410212711
260.82,0.000134410212711
260.85,0.000134410212711
260.87,0.000134410212711
260.9,0.000134410212711
260.92,0.000134410212711
260.95,0.000134410212711
260.97,0.000134410212711
260.99,0.000134410212711
261.02,0.000134410212711
261.04,0.000134410212711
261.07,0.000134410212711
261.09,0.000134410212711
261.12,0.000134410212711
