Wavelength (nm),Normalized
205.16,0.0027192667442638
205.19,0.0027192658686073
205.21,0.0027192652784703
205.23,0.002719264973853
205.26,0.0027192649547553
205.28,0.0027192652211772
205.31,0.0027192602000411
205.33,0.0027192442558461
205.36,0.0027191104344581
205.38,0.002718780836271
205.4,0.002717907397884
205.43,0.0027123963113009
205.45,0.0027034750952756
205.48,0.0026627827477118
205.5,0.0026224076251174
205.52,0.0024782513541291
205.55,0.0024742492782215
205.57,0.0027529195554354
205.6,0.0031724239196752
205.62,0.0049001575497808
205.65,0.0079865318982803
205.67,0.0136277295372127
205.69,0.0216692885613066
205.72,0.0314780387865121
205.74,0.0416498521398236
205.77,0.0508703678733426
205.79,0.0567684169236811
205.82,0.0584508069648982
205.84,0.0548405093327095
205.86,0.0475728666761525
205.89,0.0374595834919771
205.91,0.0271791576212179
205.94,0.0179399696637122
205.96,0.0108174048289954
205.99,0.0061164846361804
206.01,0.003836658841591
206.03,0.0026462689959662
206.06,0.0025305450929186
206.08,0.0024682874916098
206.11,0.0026185080425201
206.13,0.0026478450605272
206.16,0.0026801781602988
206.18,0.0027089153750415
206.2,0.0027149310395737
206.23,0.0027184181279117
206.25,0.0027189841991541
206.28,0.0027192258983262
206.3,0.0027192548840441
206.33,0.0027192630624906
206.35,0.0027192655208244
206.37,0.0027192657349294
206.4,0.0027192657859993
206.42,0.0027192657894144
206.45,0.0027192657900667
206.47,0.0027192657900997
206.49,0.0027192657901043
206.52,0.002719265790105
206.54,0.002719265790105
206.57,0.002719265790105
206.59,0.002719265790105
206.62,0.002719265790105
206.64,0.002719265790105
206.66,0.002719265790105
206.69,0.002719265790105
206.71,0.002719265790105
206.74,0.002719265790105
206.76,0.002719265790105
206.79,0.002719265790105
206.81,0.002719265790105
206.83,0.002719265790105
206.86,0.002719265790105
206.88,0.002719265790105
206.91,0.002719265790105
206.93,0.002719265790105
206.96,0.002719265790105
206.98,0.002719265790105
207.0,0.002719265790105
207.03,0.002719265790105
207.05,0.002719265790105
207.08,0.002719265790105
207.1,0.002719265790105
207.13,0.002719265790105
207.15,0.002719265790105
207.17,0.002719265790105
207.2,0.002719265790105
207.22,0.002719265790105
207.25,0.002719265790105
207.27,0.002719265790105
207.3,0.002719265790105
207.32,0.002719265790105
207.34,0.002719265790105
207.37,0.002719265790105
207.39,0.002719265790105
207.42,0.002719265790105
207.44,0.002719265790105
207.47,0.002719265790105
207.49,0.002719265790105
207.51,0.002719265790105
207.54,0.002719265790105
207.56,0.002719265790105
207.59,0.002719265790105
207.61,0.002719265790105
207.63,0.002719265790105
207.66,0.002719265790105
207.68,0.002719265790105
207.71,0.002719265790105
207.73,0.002719265790105
207.76,0.002719265790105
207.78,0.002719265790105
207.8,0.002719265790105
207.83,0.002719265790105
207.85,0.002719265790105
207.88,0.002719265790105
207.9,0.002719265790105
207.93,0.002719265790105
207.95,0.002719265790105
207.97,0.002719265790105
208.0,0.002719265790105
208.02,0.002719265790105
208.05,0.002719265790105
208.07,0.002719265790105
208.1,0.002719265790105
208.12,0.002719265790105
208.14,0.0027192657901049
208.17,0.0027192657901042
211.64,0.002719265790089
211.66,0.002719265790003
211.69,0.0027192657885732
211.71,0.0027192657819808
211.73,0.0027192657499717
211.76,0.0027192653637355
211.78,0.0027192640413713
211.81,0.0027192518575115
211.83,0.0027192186762804
211.85,0.0027189778789871
211.88,0.002718465857392
211.9,0.0027172792911242
211.93,0.0027103252026869
211.95,0.0027004936995852
211.98,0.0026564905283873
212.0,0.0026167203215263
212.02,0.002447912548205
212.05,0.002397264514717
212.07,0.0025618681173459
212.1,0.0022456680226937
212.12,0.0033043806059922
212.15,0.0041956109600243
212.17,0.0108181729942233
212.19,0.0215470879286066
212.22,0.0485560257631953
212.24,0.0949375524681089
212.27,0.1600746367585952
212.29,0.2492191132724895
212.32,0.3562429221967285
212.34,0.4636391586860858
212.36,0.5597175766288427
212.39,0.6164191104002992
212.41,0.6275111413980697
212.44,0.5902492538898207
212.46,0.5139169264115051
212.49,0.4101776123929545
212.51,0.2951311922571127
212.53,0.192928266737279
212.56,0.1129084745238395
212.58,0.0569597997900317
212.61,0.0264195664230748
212.63,0.0074167514350655
212.66,0.0
212.68,0.0004709309998428
212.7,0.0004956548546153
212.73,0.0018415784078385
212.75,0.0022044447550027
212.78,0.0025808521014642
212.8,0.0026534966508817
212.83,0.0026921068166483
212.85,0.0027139924232962
212.87,0.0027175021215375
212.9,0.0027190049861768
212.92,0.0027191943927685
212.95,0.0027192579195071
212.97,0.0027192639980133
212.99,0.002719265411983
213.02,0.0027192657605164
213.04,0.0027192657849185
213.07,0.0027192657897977
216.37,0.0027192657900604
216.39,0.0027192657900989
216.41,0.0027192657901047
216.44,0.002719265790105
216.46,0.002719265790105
216.49,0.002719265790105
216.51,0.002719265790105
216.54,0.002719265790105
216.56,0.002719265790105
216.58,0.002719265790105
216.61,0.002719265790105
216.63,0.002719265790105
216.66,0.002719265790105
216.68,0.002719265790105
216.71,0.002719265790105
216.73,0.002719265790105
216.75,0.002719265790105
216.78,0.002719265790105
216.8,0.002719265790105
216.83,0.002719265790105
216.85,0.002719265790105
216.88,0.002719265790105
216.9,0.002719265790105
216.92,0.002719265790105
216.95,0.002719265790105
216.97,0.002719265790105
217.0,0.002719265790105
217.02,0.002719265790105
217.05,0.002719265790105
217.07,0.002719265790105
217.09,0.002719265790105
217.12,0.002719265790105
217.14,0.002719265790105
217.17,0.002719265790105
217.19,0.002719265790105
217.22,0.002719265790105
217.24,0.002719265790105
217.26,0.002719265790105
217.29,0.002719265790105
217.31,0.002719265790105
217.34,0.002719265790105
217.36,0.002719265790105
217.38,0.002719265790105
217.41,0.002719265790105
217.43,0.002719265790105
217.46,0.002719265790105
217.48,0.002719265790105
217.51,0.002719265790105
217.53,0.002719265790105
217.55,0.002719265790105
217.58,0.002719265790105
217.6,0.002719265790105
217.63,0.002719265790105
217.65,0.002719265790105
217.68,0.002719265790105
217.7,0.002719265790105
217.72,0.002719265790105
217.75,0.002719265790105
217.77,0.002719265790105
217.8,0.002719265790105
217.82,0.002719265790105
217.85,0.002719265790105
217.87,0.002719265790105
217.89,0.002719265790105
217.92,0.002719265790105
217.94,0.002719265790105
217.97,0.002719265790105
217.99,0.002719265790105
218.02,0.002719265790105
218.04,0.002719265790105
218.06,0.002719265790105
218.09,0.002719265790105
218.11,0.002719265790105
218.14,0.002719265790105
218.16,0.002719265790105
218.19,0.002719265790105
218.21,0.002719265790105
218.23,0.002719265790105
218.26,0.002719265790105
218.28,0.002719265790105
218.31,0.002719265790105
218.33,0.002719265790105
218.35,0.002719265790105
218.38,0.002719265790105
218.4,0.002719265790105
218.43,0.002719265790105
218.45,0.002719265790105
218.48,0.002719265790105
218.5,0.002719265790105
218.52,0.002719265790105
218.55,0.002719265790105
218.57,0.002719265790105
218.6,0.002719265790105
218.62,0.002719265790105
218.65,0.002719265790105
218.67,0.002719265790105
218.69,0.002719265790105
218.72,0.002719265790105
218.74,0.002719265790105
218.77,0.002719265790105
218.79,0.002719265790105
218.82,0.002719265790105
218.84,0.002719265790105
218.86,0.002719265790105
218.89,0.002719265790105
218.91,0.002719265790105
218.94,0.002719265790105
218.96,0.002719265790105
218.99,0.002719265790105
219.01,0.002719265790105
219.03,0.002719265790105
219.06,0.002719265790105
219.08,0.002719265790105
219.11,0.002719265790105
219.13,0.002719265790105
219.16,0.002719265790105
219.18,0.002719265790105
219.2,0.002719265790105
219.23,0.002719265790105
219.25,0.002719265790105
219.28,0.002719265790105
219.3,0.002719265790105
219.33,0.002719265790105
219.35,0.002719265790105
219.37,0.002719265790105
219.4,0.002719265790105
219.42,0.002719265790105
219.45,0.002719265790105
219.47,0.002719265790105
219.49,0.002719265790105
219.52,0.002719265790105
219.54,0.002719265790105
219.57,0.002719265790105
219.59,0.002719265790105
219.62,0.002719265790105
219.64,0.002719265790105
219.66,0.002719265790105
219.69,0.002719265790105
219.71,0.002719265790105
219.74,0.002719265790105
219.76,0.002719265790105
219.79,0.002719265790105
219.81,0.002719265790105
219.83,0.002719265790105
219.86,0.002719265790105
219.88,0.0027192657901042
220.1,0.0027192657900998
220.13,0.0027192657900199
220.15,0.0027192657896202
220.17,0.0027192657838553
220.2,0.0027192657600946
220.22,0.0027192656556632
220.25,0.0027192645250367
220.27,0.0027192610091367
220.3,0.0027192315411063
220.32,0.0027191580367674
220.34,0.002718664627067
220.37,0.0027177023840286
220.39,0.0027156544516298
220.42,0.0027042154477665
220.44,0.0026900793322137
220.47,0.0026317082225704
220.49,0.0025979953503317
220.51,0.0026250789786411
220.54,0.0025677307652303
220.56,0.002995787462185
220.59,0.0037842653435381
220.61,0.0061309018154513
220.63,0.0100208624362981
220.66,0.0164698264192189
220.68,0.0251338126441805
220.71,0.0353955161417391
220.73,0.0457911788696306
220.76,0.0549678001106235
220.78,0.0605415880584455
220.8,0.0619323464903209
220.83,0.0586603888881151
220.85,0.0526640055874616
220.88,0.0446198395007603
220.9,0.0395673526317433
220.93,0.0385459338735729
220.95,0.0455561206813926
220.97,0.060185435770626
221.0,0.0818926623237135
221.02,0.1066097471845353
221.05,0.131465322814382
221.07,0.1504901932873745
221.1,0.1614259259017291
221.12,0.1601550380214843
221.14,0.1493413583782553
221.17,0.1288540811057075
221.19,0.1043544255913936
221.22,0.0786551637323019
221.24,0.0552802598958063
221.27,0.03605912258024
221.29,0.0223732279694554
221.31,0.0126535116371036
221.34,0.0074819482456767
221.36,0.0041946208380904
221.39,0.0026749371354027
221.41,0.0024572988338368
221.44,0.0032650262193155
221.46,0.0087363751107935
221.48,0.0197537929007827
221.51,0.036364798291205
221.53,0.0626237741339387
221.56,0.0972232723787501
221.58,0.1379150271482907
221.6,0.1803902690595752
221.63,0.2158239623305506
221.65,0.2395961292016743
221.68,0.2484188850518716
221.7,0.2413291792358524
221.73,0.2200429274730349
221.75,0.1869815241932478
221.77,0.1515936617316697
221.8,0.1164930892576718
221.82,0.0862164532536493
221.85,0.0625614312315102
221.87,0.0432602919893879
221.9,0.0292232414383938
221.92,0.020109377295189
221.94,0.0128977773138882
221.97,0.008660108557724
221.99,0.0055010112042548
222.02,0.0040282571220326
222.04,0.0029630348364379
222.07,0.0025537343262557
222.09,0.0025958143678438
222.11,0.0025910066955765
222.14,0.00266788271156
222.16,0.0026876153928234
222.19,0.0027103707941886
222.21,0.0027147503965829
222.24,0.00271728234904
222.26,0.0027188469304352
222.28,0.0027191151432003
222.31,0.0027192410182315
222.33,0.002719258410426
222.36,0.0027192648693147
222.38,0.0027192655579448
222.41,0.0027192657356991
222.43,0.0027192657851114
222.45,0.0027192657891189
222.48,0.002719265790034
222.5,0.0027192657900932
222.53,0.0027192657901043
222.55,0.0027192657901049
222.58,0.002719265790105
222.6,0.002719265790105
222.62,0.002719265790105
222.65,0.002719265790105
222.67,0.002719265790105
222.7,0.002719265790105
222.72,0.002719265790105
222.74,0.002719265790105
222.77,0.002719265790105
222.79,0.002719265790105
222.82,0.002719265790105
222.84,0.002719265790105
222.87,0.002719265790105
222.89,0.002719265790105
222.91,0.002719265790105
222.94,0.002719265790105
222.96,0.002719265790105
222.99,0.002719265790105
223.01,0.002719265790105
223.04,0.002719265790105
223.06,0.002719265790105
223.08,0.002719265790105
223.11,0.002719265790105
223.13,0.002719265790105
223.16,0.002719265790105
223.18,0.002719265790105
223.21,0.002719265790105
223.23,0.002719265790105
223.25,0.002719265790105
223.28,0.002719265790105
223.3,0.002719265790105
223.33,0.002719265790105
223.35,0.002719265790105
223.38,0.002719265790105
223.4,0.002719265790105
223.42,0.002719265790105
223.45,0.002719265790105
223.47,0.002719265790105
223.5,0.002719265790105
223.52,0.002719265790105
223.55,0.002719265790105
223.57,0.002719265790105
223.59,0.002719265790105
223.62,0.002719265790105
223.64,0.002719265790105
223.67,0.002719265790105
223.69,0.002719265790105
223.71,0.002719265790105
223.74,0.002719265790105
223.76,0.002719265790105
223.79,0.002719265790105
223.81,0.002719265790105
223.84,0.002719265790105
223.86,0.002719265790105
223.88,0.002719265790105
223.91,0.002719265790105
223.93,0.002719265790105
223.96,0.002719265790105
224.2,0.002719265790105
224.22,0.002719265790105
224.25,0.002719265790105
224.27,0.002719265790105
224.3,0.002719265790105
224.32,0.002719265790105
224.35,0.002719265790105
224.37,0.002719265790105
224.39,0.002719265790105
224.42,0.002719265790105
224.44,0.002719265790105
224.47,0.002719265790105
224.49,0.002719265790105
224.52,0.002719265790105
224.54,0.002719265790105
224.56,0.002719265790105
224.59,0.002719265790105
224.61,0.002719265790105
224.64,0.002719265790105
224.66,0.002719265790105
224.69,0.002719265790105
224.71,0.002719265790105
224.73,0.002719265790105
224.76,0.002719265790105
224.78,0.002719265790105
224.81,0.002719265790105
224.83,0.002719265790105
224.85,0.002719265790105
224.88,0.002719265790105
224.9,0.002719265790105
224.93,0.002719265790105
224.95,0.002719265790105
224.98,0.002719265790105
225.0,0.002719265790105
225.02,0.002719265790105
225.05,0.002719265790105
225.07,0.002719265790105
225.1,0.002719265790105
225.12,0.002719265790105
225.15,0.002719265790105
225.17,0.002719265790105
225.19,0.002719265790105
225.22,0.002719265790105
225.24,0.002719265790105
225.27,0.002719265790105
225.29,0.002719265790105
225.32,0.002719265790105
225.34,0.002719265790105
225.36,0.002719265790105
225.39,0.002719265790105
225.41,0.002719265790105
225.44,0.002719265790105
225.46,0.002719265790105
225.49,0.002719265790105
225.51,0.002719265790105
225.53,0.002719265790105
225.56,0.002719265790105
225.58,0.002719265790105
225.61,0.002719265790105
228.83,0.002719265790105
228.86,0.002719265790105
228.88,0.002719265790105
228.91,0.002719265790105
228.93,0.002719265790105
228.95,0.002719265790105
228.98,0.002719265790105
229.0,0.002719265790105
229.03,0.002719265790105
229.05,0.002719265790105
229.08,0.002719265790105
229.1,0.002719265790105
229.12,0.002719265790105
229.15,0.002719265790105
229.17,0.002719265790105
229.2,0.002719265790105
229.22,0.002719265790105
229.24,0.002719265790105
229.27,0.002719265790105
229.29,0.002719265790105
229.32,0.002719265790105
229.34,0.002719265790105
229.37,0.002719265790105
229.39,0.002719265790105
229.41,0.002719265790105
229.44,0.002719265790105
229.46,0.002719265790105
229.49,0.002719265790105
229.51,0.002719265790105
229.54,0.0027192657901048
229.56,0.0027192657901038
229.58,0.0027192657900861
229.61,0.0027192657899964
229.63,0.0027192657895169
229.66,0.0027192657828705
229.68,0.0027192657566887
229.71,0.0027192654684943
229.73,0.0027192645262595
229.75,0.0027192560928912
229.78,0.0027192334259437
229.8,0.0027191663829538
229.83,0.0027186837796415
229.85,0.0027177256552374
229.88,0.0027123998296437
229.9,0.0027043902265099
229.92,0.0026674298191827
229.95,0.0026305153690124
229.97,0.0026030190308422
230.0,0.0024159961657544
230.02,0.0024866503120344
230.05,0.0024966190377877
230.07,0.0038581099681815
230.09,0.0071771973697985
230.12,0.0122693424229294
230.14,0.0218946860606944
230.17,0.0357792908951982
230.19,0.0547625876698425
230.21,0.0773877677232492
230.24,0.1001577722056625
230.26,0.1198826885575556
230.29,0.1339217288250468
230.31,0.1388994097832845
230.34,0.1342177020561501
230.36,0.1192654120988686
230.38,0.0989775476033796
230.41,0.075341598534594
230.43,0.0531542373708586
230.46,0.0345241503324721
230.48,0.0201656017613457
230.51,0.0107160110122862
230.53,0.0060041791399057
230.55,0.0032784289542836
230.58,0.0027223585803535
230.6,0.0023721157017743
230.63,0.0025621531011661
230.65,0.0025652636408235
230.68,0.0026175547836899
230.7,0.0026869558269661
230.72,0.0027030149505501
230.75,0.0027152669589196
230.77,0.0027176410277684
230.8,0.0027189630460131
230.82,0.0027191597537431
230.85,0.002719231806533
230.87,0.0027192609441162
230.89,0.0027192644738917
230.92,0.002719265640531
230.94,0.0027192657556123
230.97,0.0027192657870438
230.99,0.0027192657895024
231.02,0.0027192657899933
231.04,0.0027192657900976
231.06,0.0027192657901038
231.09,0.0027192657901049
231.11,0.002719265790105
231.14,0.002719265790105
231.16,0.002719265790105
231.19,0.002719265790105
231.21,0.002719265790105
231.23,0.002719265790105
231.26,0.002719265790105
231.28,0.002719265790105
231.31,0.002719265790105
231.33,0.002719265790105
231.35,0.002719265790105
231.38,0.002719265790105
231.4,0.002719265790105
231.43,0.002719265790105
231.45,0.002719265790105
231.48,0.002719265790105
231.5,0.002719265790105
231.52,0.002719265790105
231.55,0.002719265790105
231.57,0.002719265790105
231.6,0.002719265790105
231.62,0.002719265790105
231.65,0.002719265790105
231.67,0.002719265790105
231.69,0.002719265790105
231.72,0.002719265790105
231.74,0.002719265790105
231.77,0.002719265790105
231.79,0.002719265790105
231.82,0.002719265790105
231.84,0.002719265790105
231.86,0.002719265790105
231.89,0.002719265790105
232.25,0.002719265790105
232.28,0.002719265790105
232.3,0.002719265790105
232.33,0.002719265790105
232.35,0.002719265790105
232.37,0.002719265790105
232.4,0.002719265790105
232.42,0.002719265790105
232.45,0.002719265790105
232.47,0.002719265790105
232.49,0.002719265790105
232.52,0.002719265790105
232.54,0.002719265790105
232.57,0.002719265790105
232.59,0.002719265790105
232.62,0.002719265790105
232.64,0.002719265790105
232.66,0.002719265790105
232.69,0.002719265790105
232.71,0.002719265790105
232.74,0.002719265790105
232.76,0.002719265790105
232.79,0.002719265790105
232.81,0.002719265790105
232.83,0.002719265790105
232.86,0.002719265790105
232.88,0.002719265790105
232.91,0.002719265790105
232.93,0.002719265790105
232.96,0.002719265790105
232.98,0.002719265790105
233.0,0.002719265790105
233.03,0.002719265790105
233.05,0.002719265790105
233.08,0.002719265790105
233.1,0.002719265790105
233.13,0.002719265790105
233.15,0.002719265790105
233.17,0.002719265790105
233.2,0.002719265790105
233.22,0.002719265790105
233.25,0.002719265790105
233.27,0.002719265790105
233.3,0.002719265790105
233.32,0.002719265790105
233.34,0.002719265790105
233.37,0.002719265790105
233.39,0.002719265790105
233.42,0.002719265790105
233.44,0.002719265790105
233.46,0.002719265790105
233.49,0.002719265790105
233.51,0.002719265790105
233.54,0.002719265790105
233.56,0.002719265790105
233.59,0.002719265790105
233.61,0.002719265790105
233.63,0.002719265790105
233.66,0.002719265790105
233.68,0.002719265790105
233.71,0.002719265790105
241.06,0.002719265790105
241.08,0.002719265790105
241.1,0.002719265790105
241.13,0.002719265790105
241.15,0.002719265790105
241.18,0.002719265790105
241.2,0.002719265790105
241.23,0.002719265790105
241.25,0.002719265790105
241.27,0.002719265790105
241.3,0.002719265790105
241.32,0.002719265790105
241.35,0.002719265790105
241.37,0.002719265790105
241.4,0.002719265790105
241.42,0.002719265790105
241.44,0.002719265790105
241.47,0.002719265790105
241.49,0.002719265790105
241.52,0.002719265790105
241.54,0.002719265790105
241.57,0.002719265790105
241.59,0.002719265790105
241.61,0.002719265790105
241.64,0.002719265790105
241.66,0.002719265790105
241.69,0.002719265790105
241.71,0.002719265790105
241.74,0.002719265790105
241.76,0.002719265790105
241.78,0.002719265790105
241.81,0.002719265790105
241.83,0.002719265790105
241.86,0.002719265790105
241.88,0.002719265790105
241.91,0.002719265790105
241.93,0.002719265790105
241.95,0.002719265790105
241.98,0.002719265790105
242.0,0.002719265790105
242.03,0.002719265790105
242.05,0.002719265790105
242.07,0.002719265790105
242.1,0.002719265790105
242.12,0.002719265790105
242.15,0.002719265790105
242.17,0.002719265790105
242.2,0.002719265790105
242.22,0.002719265790105
242.24,0.002719265790105
242.27,0.002719265790105
242.29,0.002719265790105
242.32,0.002719265790105
242.34,0.002719265790105
