Wavelength (nm),Normalized
205.45,0.0001894062509291
205.48,0.000189406207526
205.5,0.0001894061781709
205.53,0.0001894061628639
205.55,0.0001894061616048
205.58,0.0001894061743939
205.6,0.0001894060732619
205.63,0.0001894050008498
205.65,0.0001894017729687
205.68,0.0001893761712656
205.7,0.0001893167405276
205.72,0.0001889522422085
205.75,0.0001883267721603
205.77,0.0001853472996221
205.8,0.0001820216419771
205.82,0.0001695946529301
205.85,0.0001660576362815
205.87,0.0001543204831041
205.9,0.0002079064195615
205.92,0.0003195112350404
205.95,0.0006286254697066
205.97,0.0011639792053236
206.0,0.0019204921147883
206.02,0.0028826421248347
206.05,0.0039632253332532
206.07,0.0049222672674871
206.09,0.0056385970118105
206.12,0.0058716447328861
206.14,0.0056511766198035
206.17,0.0049474264834729
206.19,0.004000964157232
206.22,0.0029329605568064
206.24,0.0019261529383852
206.27,0.0011413359109363
206.29,0.0006286254697066
206.32,0.0003195112350404
206.34,0.0002079018376242
206.37,0.0001543216285884
206.39,0.0001660630745052
206.42,0.0001696034754569
206.44,0.0001820325310683
206.46,0.0001853589375392
206.49,0.0001883378411645
206.51,0.0001889614245614
206.54,0.0001893227184905
206.56,0.0001893776270999
206.59,0.0001893973889358
206.61,0.0001894050413302
206.64,0.0001894059113402
206.66,0.0001894061743939
206.69,0.0001894061974273
206.71,0.0001894062029556
206.74,0.0001894062033279
206.76,0.0001894062033995
206.79,0.0001894062034032
206.81,0.0001894062034038
206.83,0.0001894062034038
206.86,0.0001894062034038
206.88,0.0001894062034038
206.91,0.0001894062034038
206.93,0.0001894062034038
206.96,0.0001894062034038
206.98,0.0001894062034038
207.01,0.0001894062034038
207.03,0.0001894062034038
207.06,0.0001894062034038
207.08,0.0001894062034038
207.11,0.0001894062034038
207.13,0.0001894062034038
207.16,0.0001894062034038
207.18,0.0001894062034038
207.2,0.0001894062034038
207.23,0.0001894062034038
207.25,0.0001894062034038
207.28,0.0001894062034038
207.3,0.0001894062034038
207.33,0.0001894062034038
207.35,0.0001894062034038
207.38,0.0001894062034038
207.4,0.0001894062034038
207.43,0.0001894062034038
207.45,0.0001894062034038
207.48,0.0001894062034038
207.5,0.0001894062034038
207.53,0.0001894062034038
207.55,0.0001894062034038
207.57,0.0001894062034038
207.6,0.0001894062034038
207.62,0.0001894062034038
207.65,0.0001894062034038
207.67,0.0001894062034038
207.7,0.0001894062034038
207.72,0.0001894062034038
207.75,0.0001894062034038
207.77,0.0001894062034038
207.8,0.0001894062034038
207.82,0.0001894062034038
207.85,0.0001894062034038
207.87,0.0001894062034038
207.89,0.0001894062034038
207.92,0.0001894062034038
207.94,0.0001894062034038
207.97,0.0001894062034038
207.99,0.0001894062034038
208.02,0.0001894062034038
208.04,0.0001894062034038
208.07,0.0001894062034038
208.09,0.0001894062034038
208.12,0.0001894062034038
208.14,0.0001894062034038
208.17,0.0001894062034038
208.19,0.0001894062034038
210.71,0.0001894062034038
210.73,0.0001894062034038
210.76,0.0001894062034038
210.78,0.0001894062034038
210.8,0.0001894062034038
210.83,0.0001894062034038
210.85,0.0001894062034038
210.88,0.0001894062034038
210.9,0.0001894062034038
210.93,0.0001894062034038
210.95,0.0001894062034038
210.98,0.0001894062034038
211.0,0.0001894062034038
211.03,0.0001894062034038
211.05,0.0001894062034038
211.08,0.0001894062034038
211.1,0.0001894062034038
211.13,0.0001894062034038
211.15,0.0001894062034038
211.17,0.0001894062034038
211.2,0.0001894062034038
211.22,0.0001894062034038
211.25,0.0001894062034038
211.27,0.0001894062034038
211.3,0.0001894062034038
211.32,0.0001894062034038
211.35,0.0001894062034038
211.37,0.0001894062034038
211.4,0.0001894062034038
211.42,0.0001894062034038
211.45,0.0001894062034038
211.47,0.0001894062034038
211.5,0.0001894062034038
211.52,0.0001894062034038
211.54,0.0001894062034038
211.57,0.0001894062034038
211.59,0.0001894062034038
211.62,0.0001894062034038
211.64,0.0001894062034038
211.67,0.0001894062034038
211.69,0.0001894062034038
211.72,0.0001894062034038
211.74,0.0001894062034038
211.77,0.0001894062034038
211.79,0.0001894062034038
211.82,0.0001894062034038
211.84,0.0001894062034038
211.87,0.0001894062034038
211.89,0.0001894062034038
211.91,0.0001894062034038
211.94,0.0001894062034038
211.96,0.0001894062034038
211.99,0.0001894062034038
212.01,0.0001894062034038
212.04,0.0001894062034038
212.06,0.0001894062034038
212.09,0.0001894062034038
212.11,0.0001894062034038
212.14,0.0001894062034038
212.16,0.0001894062034038
212.19,0.0001894062034038
212.21,0.0001894062034038
212.24,0.0001894062034038
212.26,0.0001894062034038
212.28,0.0001894062034038
212.31,0.0001894062034038
212.33,0.0001894062034038
212.36,0.0001894062034038
212.38,0.0001894062034038
212.41,0.0001894062034038
212.43,0.0001894062034038
212.46,0.0001894062034038
212.48,0.0001894062034038
212.51,0.0001894062034038
212.53,0.0001894062034038
212.56,0.0001894062034038
212.58,0.0001894062034038
212.61,0.0001894062034038
212.63,0.0001894062034038
212.65,0.0001894062034038
212.68,0.0001894062034038
212.7,0.0001894062034038
212.73,0.0001894062034038
212.75,0.0001894062034038
212.78,0.0001894062034038
212.8,0.0001894062034038
212.83,0.0001894062034038
212.85,0.0001894062034038
212.88,0.0001894062034038
212.9,0.0001894062034038
212.93,0.0001894062034038
212.95,0.0001894062034038
212.98,0.0001894062034038
213.0,0.0001894062034038
213.02,0.0001894062034038
213.05,0.0001894062034038
213.07,0.0001894062034038
213.1,0.0001894062034038
213.12,0.0001894062034038
213.15,0.0001894062034038
213.17,0.0001894062034038
213.2,0.0001894062034038
213.22,0.0001894062034038
213.25,0.0001894062034038
213.27,0.0001894062034038
213.3,0.0001894062034038
213.32,0.0001894062034038
213.35,0.0001894062034038
213.37,0.0001894062034038
213.39,0.0001894062034038
213.42,0.0001894062034038
213.44,0.0001894062034038
213.47,0.0001894062034038
213.49,0.0001894062034038
213.52,0.0001894062034038
213.54,0.0001894062034038
213.57,0.0001894062034038
213.86,0.0001894062034038
213.89,0.0001894062034038
213.91,0.0001894062034038
213.94,0.0001894062034038
213.96,0.0001894062034038
213.99,0.0001894062034038
214.01,0.0001894062034038
214.04,0.0001894062034038
214.06,0.0001894062034038
214.08,0.0001894062034038
214.11,0.0001894062034038
214.13,0.0001894062034038
214.16,0.0001894062034038
214.18,0.0001894062034038
214.21,0.0001894062034038
214.23,0.0001894062034038
214.26,0.0001894062034038
214.28,0.0001894062034038
214.31,0.0001894062034038
214.33,0.0001894062034038
214.36,0.0001894062034038
214.38,0.0001894062034038
214.41,0.0001894062034038
214.43,0.0001894062034038
214.45,0.0001894062034038
214.48,0.0001894062034038
214.5,0.0001894062034038
214.53,0.0001894062034038
214.55,0.0001894062034038
214.58,0.0001894062034038
214.6,0.0001894062034038
214.63,0.0001894062034038
214.65,0.0001894062034038
214.68,0.0001894062034038
214.7,0.0001894062034038
214.73,0.0001894062034038
214.75,0.0001894062034038
214.78,0.0001894062034038
214.8,0.0001894062034038
214.82,0.0001894062034038
214.85,0.0001894062034038
214.87,0.0001894062034038
214.9,0.0001894062034038
214.92,0.0001894062034038
214.95,0.0001894062034038
214.97,0.0001894062034038
215.0,0.0001894062034038
215.02,0.0001894062034038
215.05,0.0001894062034038
215.07,0.0001894062034038
215.1,0.0001894062034038
215.12,0.0001894062034038
215.15,0.0001894062034038
215.17,0.0001894062034038
215.19,0.0001894062034038
215.22,0.0001894062034038
215.24,0.0001894062034038
215.91,0.0001894062034038
215.93,0.0001894062034038
215.96,0.0001894062034038
215.98,0.0001894062034038
216.01,0.0001894062034038
216.03,0.0001894062034038
216.06,0.0001894062034038
216.08,0.0001894062034038
216.11,0.0001894062034038
216.13,0.0001894062034038
216.16,0.0001894062034038
216.18,0.0001894062034038
216.21,0.0001894062034038
216.23,0.0001894062034038
216.26,0.0001894062034038
216.28,0.0001894062034038
216.3,0.0001894062034038
216.33,0.0001894062034038
216.35,0.0001894062034038
216.38,0.0001894062034038
216.4,0.0001894062034038
216.43,0.0001894062034038
216.45,0.0001894062034038
216.48,0.0001894062034038
216.5,0.0001894062034038
216.53,0.0001894062034038
216.55,0.0001894062034038
216.58,0.0001894062034038
216.6,0.0001894062034038
216.63,0.0001894062034038
216.65,0.0001894062034038
216.67,0.0001894062034038
216.7,0.0001894062034038
216.72,0.0001894062034038
216.75,0.0001894062034038
216.77,0.0001894062034038
216.8,0.0001894062034038
216.82,0.0001894062034038
216.85,0.0001894062034038
216.87,0.0001894062034038
216.9,0.0001894062034038
216.92,0.0001894062034038
216.95,0.0001894062034038
216.97,0.0001894062034038
216.99,0.0001894062034038
217.02,0.0001894062034038
217.04,0.0001894062034038
217.07,0.0001894062034038
217.09,0.0001894062034038
217.12,0.0001894062034038
217.14,0.0001894062034038
217.17,0.0001894062034038
217.19,0.0001894062034038
217.22,0.0001894062034038
217.24,0.0001894062034038
217.27,0.0001894062034038
217.29,0.0001894062034038
217.32,0.0001894062034038
217.34,0.0001894062034038
217.36,0.0001894062034038
217.39,0.0001894062034038
217.41,0.0001894062034038
217.44,0.0001894062034038
217.46,0.0001894062034038
217.49,0.0001894062034038
217.51,0.0001894062034038
217.54,0.0001894062034038
217.56,0.0001894062034038
217.59,0.0001894062034038
217.61,0.0001894062034038
217.64,0.0001894062034038
217.66,0.0001894062034038
217.69,0.0001894062034038
217.71,0.0001894062034038
217.73,0.0001894062034038
217.98,0.0001894062034038
218.01,0.0001894062034038
218.03,0.0001894062034038
218.06,0.0001894062034038
218.08,0.0001894062034038
218.1,0.0001894062034038
218.13,0.0001894062034038
218.15,0.0001894062034038
218.18,0.0001894062034038
218.2,0.0001894062034038
218.23,0.0001894062034038
218.25,0.0001894062034038
218.28,0.0001894062034038
218.3,0.0001894062034038
218.33,0.0001894062034038
218.35,0.0001894062034038
218.38,0.0001894062034038
218.4,0.0001894062034038
218.43,0.0001894062034038
218.45,0.0001894062034038
218.47,0.0001894062034038
218.5,0.0001894062034038
218.52,0.0001894062034038
218.55,0.0001894062034038
218.57,0.0001894062034038
218.6,0.0001894062034038
218.62,0.0001894062034038
218.65,0.0001894062034038
218.67,0.0001894062034038
218.7,0.0001894062034038
218.72,0.0001894062034038
218.75,0.0001894062034038
218.77,0.0001894062034038
218.8,0.0001894062034038
218.82,0.0001894062034038
218.84,0.0001894062034038
218.87,0.0001894062034038
218.89,0.0001894062034038
218.92,0.0001894062034038
218.94,0.0001894062034038
218.97,0.0001894062034038
218.99,0.0001894062034038
219.02,0.0001894062034038
219.04,0.0001894062034038
219.07,0.0001894062034038
219.09,0.0001894062034038
219.12,0.0001894062034038
219.14,0.0001894062034038
219.17,0.0001894062034038
219.19,0.0001894062034038
219.21,0.0001894062034038
219.24,0.0001894062034038
219.26,0.0001894062034038
219.29,0.0001894062034038
219.31,0.0001894062034038
219.34,0.0001894062034038
219.36,0.0001894062034038
219.51,0.0001894062034038
219.54,0.0001894062034038
219.56,0.0001894062034038
219.58,0.0001894062034038
219.61,0.0001894062034038
219.63,0.0001894062034038
219.66,0.0001894062034038
219.68,0.0001894062034038
219.71,0.0001894062034038
219.73,0.0001894062034038
219.76,0.0001894062034038
219.78,0.0001894062034038
219.81,0.0001894062034038
219.83,0.0001894062034038
219.86,0.0001894062034038
219.88,0.0001894062034038
219.91,0.0001894062034038
219.93,0.0001894062034038
219.95,0.0001894062034038
219.98,0.0001894062034038
220.0,0.0001894062034038
220.03,0.0001894062034038
220.05,0.0001894062034038
220.08,0.0001894062034038
220.1,0.0001894062034038
220.13,0.0001894062034038
220.15,0.0001894062034038
220.18,0.0001894062034038
220.2,0.0001894062034038
220.23,0.0001894062034038
220.25,0.0001894062034038
220.27,0.0001894062034038
220.3,0.0001894062034038
220.32,0.0001894062034038
220.35,0.0001894062034038
220.37,0.0001894062034038
220.4,0.0001894062034038
220.42,0.0001894062034038
220.45,0.0001894062034038
220.47,0.0001894062034038
220.5,0.0001894062034038
220.52,0.0001894062034038
220.55,0.0001894062034038
220.57,0.0001894062034038
220.6,0.0001894062034038
220.62,0.0001894062034038
220.64,0.0001894062034038
220.67,0.0001894062034038
220.69,0.0001894062034038
220.72,0.0001894062034038
220.74,0.0001894062034038
220.77,0.0001894062034038
220.79,0.0001894062034038
220.82,0.0001894062034038
220.84,0.0001894062034038
220.87,0.0001894062034038
220.89,0.0001894062034038
220.92,0.0001894062034038
220.94,0.0001894062034038
220.97,0.0001894062034038
220.99,0.0001894062034038
221.01,0.0001894062034038
221.04,0.0001894062034038
221.06,0.0001894062034038
221.09,0.0001894062034038
221.11,0.0001894062034038
221.14,0.0001894062034038
221.16,0.0001894062034038
221.19,0.0001894062034038
221.21,0.0001894062034038
221.24,0.0001894062034038
221.26,0.0001894062034038
221.29,0.0001894062034038
221.31,0.0001894062034038
221.34,0.0001894062034038
221.36,0.0001894062034038
221.38,0.0001894062034038
221.41,0.0001894062034038
221.43,0.0001894062034038
221.46,0.0001894062034038
221.48,0.0001894062034038
221.51,0.0001894062034038
221.53,0.0001894062034038
221.56,0.0001894062034038
221.58,0.0001894062034038
221.61,0.0001894062034038
221.63,0.0001894062034038
221.66,0.0001894062034038
221.68,0.0001894062034038
221.71,0.0001894062034038
221.73,0.0001894062034038
221.75,0.0001894062034038
221.78,0.0001894062034038
221.8,0.0001894062034038
221.83,0.0001894062034038
221.85,0.0001894062034038
221.88,0.0001894062034038
221.9,0.0001894062034038
221.93,0.0001894062034038
221.95,0.0001894062034038
221.98,0.0001894062034038
222.0,0.0001894062034038
222.03,0.0001894062034038
222.05,0.0001894062034038
222.08,0.0001894062034038
222.1,0.0001894062034038
222.12,0.0001894062034038
222.15,0.0001894062034038
222.17,0.0001894062034038
222.2,0.0001894062034038
222.22,0.0001894062034038
222.25,0.0001894062034038
222.27,0.0001894062034038
222.3,0.0001894062034038
222.32,0.0001894062034038
222.35,0.0001894062034038
222.37,0.0001894062034038
222.4,0.0001894062034038
222.42,0.0001894062034038
222.45,0.0001894062034038
222.47,0.0001894062034038
222.49,0.0001894062034038
222.52,0.0001894062034038
222.54,0.0001894062034038
222.57,0.0001894062034038
222.59,0.0001894062034038
222.62,0.0001894062034038
222.64,0.0001894062034038
222.67,0.0001894062034038
222.69,0.0001894062034038
222.72,0.0001894062034038
222.74,0.0001894062034038
222.77,0.0001894062034038
222.79,0.0001894062034038
222.82,0.0001894062034038
222.84,0.0001894062034038
222.86,0.0001894062034038
222.89,0.0001894062034038
222.91,0.0001894062034038
222.94,0.0001894062034038
222.96,0.0001894062034038
222.99,0.0001894062034038
223.01,0.0001894062034038
223.04,0.0001894062034038
223.06,0.0001894062034038
223.09,0.0001894062034038
223.11,0.0001894062034038
223.14,0.0001894062034038
223.16,0.0001894062034038
223.18,0.0001894062034038
223.21,0.0001894062034038
223.23,0.0001894062034038
223.26,0.0001894062034038
223.28,0.0001894062034038
223.31,0.0001894062034038
223.33,0.0001894062034038
223.36,0.0001894062034038
223.38,0.0001894062034038
223.41,0.0001894062034038
223.43,0.0001894062034038
223.46,0.0001894062034038
223.48,0.0001894062034038
223.51,0.0001894062034038
223.53,0.0001894062034038
223.55,0.0001894062034038
223.58,0.0001894062034038
223.6,0.0001894062034038
223.63,0.0001894062034038
223.65,0.0001894062034038
223.68,0.0001894062034038
223.7,0.0001894062034038
223.73,0.0001894062034038
223.75,0.0001894062034038
223.78,0.0001894062034038
223.8,0.0001894062034038
223.83,0.0001894062034038
223.85,0.0001894062034038
223.88,0.0001894062034038
223.9,0.0001894062034038
223.92,0.0001894062034038
223.95,0.0001894062034038
223.97,0.0001894062034038
224.0,0.0001894062034038
224.02,0.0001894062034038
224.05,0.0001894062034038
224.07,0.0001894062034038
224.1,0.0001894062034038
224.12,0.0001894062034038
224.15,0.0001894062034038
224.17,0.0001894062034038
224.2,0.0001894062034038
224.22,0.0001894062034038
224.25,0.0001894062034038
224.27,0.0001894062034038
224.29,0.0001894062034038
224.32,0.0001894062034038
224.34,0.0001894062034038
224.37,0.0001894062034038
224.39,0.0001894062034038
224.42,0.0001894062034038
224.44,0.0001894062034038
224.47,0.0001894062034038
224.49,0.0001894062034038
224.52,0.0001894062034038
224.54,0.0001894062034038
224.57,0.0001894062034038
224.59,0.0001894062034038
224.62,0.0001894062034038
224.64,0.0001894062034038
224.66,0.0001894062034038
224.69,0.0001894062034038
224.71,0.0001894062034038
224.74,0.0001894062034038
224.76,0.0001894062034038
224.79,0.0001894062034038
224.81,0.0001894062034038
224.84,0.0001894062034038
224.86,0.0001894062034038
224.89,0.0001894062034038
224.91,0.0001894062034038
224.94,0.0001894062034038
224.96,0.0001894062034038
224.99,0.0001894062034038
225.01,0.0001894062034038
225.03,0.0001894062034038
225.06,0.0001894062034038
225.08,0.0001894062034038
225.11,0.0001894062034038
225.13,0.0001894062034038
225.16,0.0001894062034038
225.18,0.0001894062034038
225.21,0.0001894062034038
225.23,0.0001894062034038
225.26,0.0001894062034038
225.28,0.0001894062034038
225.31,0.0001894062034038
225.33,0.0001894062034038
225.36,0.0001894062034038
225.38,0.0001894062034038
225.4,0.0001894062034038
225.43,0.0001894062034038
225.45,0.0001894062034038
225.48,0.0001894062034038
225.5,0.0001894062034038
225.53,0.0001894062034038
225.55,0.0001894062034038
225.58,0.0001894062034038
225.6,0.0001894062034038
225.63,0.0001894062034038
225.65,0.0001894062034038
225.68,0.0001894062034038
225.7,0.0001894062034038
225.73,0.0001894062034038
225.75,0.0001894062034038
225.77,0.0001894062034038
225.8,0.0001894062034038
225.82,0.0001894062034038
225.85,0.0001894062034038
225.87,0.0001894062034038
225.9,0.0001894062034038
225.92,0.0001894062034038
225.95,0.0001894062034038
225.97,0.0001894062034038
226.0,0.0001894062034038
226.02,0.0001894062034038
226.05,0.0001894062034038
226.07,0.0001894062034038
226.1,0.0001894062034038
226.12,0.0001894062034038
226.14,0.0001894062034038
226.17,0.0001894062034038
226.19,0.0001894062034038
226.22,0.0001894062034038
226.24,0.0001894062034038
226.27,0.0001894062034038
226.29,0.0001894062034038
226.32,0.0001894062034038
226.34,0.0001894062034038
226.37,0.0001894062034038
226.39,0.0001894062034038
226.42,0.0001894062034038
226.44,0.0001894062034038
226.46,0.0001894062034038
226.49,0.0001894062034038
226.51,0.0001894062034038
226.54,0.0001894062034038
226.56,0.0001894062034038
226.59,0.0001894062034038
226.61,0.0001894062034038
226.64,0.0001894062034038
226.66,0.0001894062034038
226.69,0.0001894062034038
226.71,0.0001894062034038
226.74,0.0001894062034038
226.76,0.0001894062034038
226.79,0.0001894062034038
226.81,0.0001894062034038
226.83,0.0001894062034038
226.86,0.0001894062034038
226.88,0.0001894062034038
226.91,0.0001894062034038
226.93,0.0001894062034038
226.96,0.0001894062034038
226.98,0.0001894062034038
227.01,0.0001894062034038
227.03,0.0001894062034038
227.06,0.0001894062034038
227.08,0.0001894062034038
227.11,0.0001894062034038
227.13,0.0001894062034038
227.16,0.0001894062034038
227.18,0.0001894062034038
227.2,0.0001894062034038
227.23,0.0001894062034038
227.25,0.0001894062034038
227.28,0.0001894062034038
227.3,0.0001894062034038
227.33,0.0001894062034038
227.35,0.0001894062034038
227.38,0.0001894062034038
227.4,0.0001894062034038
227.43,0.0001894062034038
227.45,0.0001894062034038
227.48,0.0001894062034038
227.5,0.0001894062034038
227.53,0.0001894062034038
227.55,0.0001894062034038
227.57,0.0001894062034038
227.6,0.0001894062034038
227.62,0.0001894062034038
227.65,0.0001894062034038
227.67,0.0001894062034038
227.7,0.0001894062034038
227.72,0.0001894062034038
227.75,0.0001894062034038
227.77,0.0001894062034038
227.8,0.0001894062034038
227.82,0.0001894062034038
227.85,0.0001894062034038
227.87,0.0001894062034038
227.9,0.0001894062034038
227.92,0.0001894062034038
227.94,0.0001894062034038
227.97,0.0001894062034038
227.99,0.0001894062034038
228.02,0.0001894062034038
228.04,0.0001894062034038
228.07,0.0001894062034038
228.09,0.0001894062034038
228.12,0.0001894062034038
228.14,0.0001894062034038
228.17,0.0001894062034038
228.19,0.0001894062034038
