Wavelength (nm),Normalized
251.87,0.0051902572833299
251.9,0.005190097248535
251.93,0.0051899889354485
251.96,0.0051899323440704
251.99,0.0051899274744006
252.02,0.0051899743264392
252.05,0.0051895195419775
252.09,0.0051874642174239
252.12,0.0051792667635504
252.15,0.0051505166758886
252.18,0.0050624791086377
252.21,0.0046268324049364
252.24,0.0038787783050468
252.27,0.0027288787066533
252.3,0.0015319354925189
252.33,0.0018320094964289
252.37,0.0073801883528761
252.4,0.0248351312701667
252.43,0.0631253747099
252.46,0.1287059576988411
252.49,0.2324023319546557
252.52,0.3650117970634718
252.55,0.5071604665362144
252.58,0.6325387260161088
252.62,0.7151521467715478
252.65,0.7368324169265843
252.68,0.6926431169093759
252.71,0.5923156870296656
252.74,0.457727791666923
252.77,0.3147761957719346
252.8,0.1938595303128547
252.83,0.1037341153919777
252.86,0.0463905470647409
252.9,0.0160056332915847
252.93,0.0034682382623367
252.96,0.0004248082018949
252.99,0.0012190986600559
253.02,0.0029318171622169
253.05,0.0045240505068351
253.08,0.0049311026353998
253.11,0.0051024722334268
253.14,0.0051640469691597
253.18,0.0051832471056885
253.21,0.0051884916300488
253.24,0.0051897521203712
253.27,0.0051900203656839
253.3,0.0051900715446682
253.33,0.005190080990202
253.36,0.0051900816344522
253.39,0.0051900817161499
254.33,0.0051900817243635
254.36,0.0051900817154951
254.39,0.005190081632558
254.42,0.0051900802961909
254.45,0.0051900724067606
254.48,0.0051900273855253
254.51,0.0051897967377367
254.54,0.0051887457521529
254.58,0.0051845085160048
254.61,0.0051694296914166
254.64,0.0051224044623564
254.67,0.0049951985975847
254.7,0.0044336559394433
254.73,0.0036384482616686
254.76,0.0027443309745414
254.79,0.0025427443872319
254.82,0.0051133163023706
254.86,0.0144139014512434
254.89,0.0361463125589534
254.92,0.0764129774005245
254.95,0.1387377740399011
254.98,0.2238560361792349
255.01,0.3204051428739488
255.04,0.411849776798447
255.07,0.4797357954416135
255.11,0.5094435145071968
255.14,0.4943578536072873
255.17,0.4378549019063928
255.2,0.3522610182715774
255.23,0.2554015630597434
255.26,0.1647459991420336
255.29,0.0946414244159555
255.32,0.0471077448234244
255.35,0.019808224767108
255.39,0.0070554955063487
255.42,0.0027904392234646
255.45,0.0024132741809479
255.48,0.0032654782901951
255.51,0.0041984529940116
255.54,0.0049210018220292
255.57,0.0050923805296235
255.6,0.0051589840387096
255.63,0.0051813381940991
255.67,0.00518790219863
255.7,0.0051895983511416
255.73,0.005189986003514
255.76,0.0051900646539178
255.79,0.0051900790041636
255.82,0.0051900815388506
255.85,0.0051900817037586
276.74,0.0051900817233114
276.77,0.0051900817198935
276.8,0.0051900816294546
276.83,0.0051900810833059
276.86,0.0051900778390654
276.89,0.0051900601912268
276.92,0.00518997310815
276.96,0.0051895842384286
276.99,0.0051880180278054
277.02,0.0051823311295664
277.05,0.0051638151435656
277.08,0.005062732071688
277.11,0.0048587110567018
277.14,0.0044533247218498
277.17,0.0037535481063303
277.2,0.002843620180341
277.24,0.0023964679721663
277.27,0.0043695107936731
277.3,0.0128904333540622
277.33,0.0348307939988434
277.36,0.0742048233341427
277.39,0.1532185199480472
277.42,0.2754570787841118
277.45,0.4350804210731825
277.48,0.615087713695952
277.52,0.788998476760205
277.55,0.9262287959965896
277.58,1.0
277.61,0.9947006856131778
277.64,0.9124572812809852
277.67,0.7632014143251542
277.7,0.5886845186137636
277.73,0.4135667127679642
277.76,0.2615673732991529
277.8,0.1459582497790341
277.83,0.069106170733193
277.86,0.0253167442724307
277.89,0.0053285421290401
277.92,0.0
277.95,0.0024588808798567
277.98,0.0032027755114321
278.01,0.0040732633564261
278.04,0.0046608670579445
278.08,0.0049708742363135
278.11,0.0051093109212625
278.14,0.0051632379660595
278.17,0.0051819315791369
278.2,0.0051878757931729
278.23,0.0051897790082992
278.26,0.0051900177037893
278.29,0.0051900694457906
278.32,0.0051900795861878
278.36,0.0051900813875388
278.39,0.0051900816776357
278.42,0.0051900817198031
288.32,0.0051900817232309
288.35,0.0051900817080211
288.38,0.0051900816033984
288.41,0.0051900803185328
288.44,0.0051900741866436
288.47,0.0051900448082071
288.5,0.0051899144638558
288.53,0.0051893870530376
288.57,0.005187445216318
288.6,0.0051809712672847
288.63,0.0051614794054544
288.66,0.0051088596111659
288.69,0.0048644117727272
288.72,0.0044788978694845
288.75,0.0039108022339081
288.78,0.0032942922771943
288.81,0.0032664118896389
288.85,0.0054928009903842
288.88,0.0133347963793321
288.91,0.0322405578291385
288.94,0.0694361388621704
288.97,0.1289463362750999
289.0,0.2256576075756257
289.03,0.3563997758257168
289.06,0.5089906360771749
289.09,0.6631312560350694
289.13,0.7939674043791951
289.16,0.8777760264969449
289.19,0.8982693619408353
289.22,0.8510215406320704
289.25,0.7462351740689048
289.28,0.5993105585972666
289.31,0.445538474885214
289.34,0.3027525890398395
289.37,0.1859792375677957
289.41,0.1013651741226065
289.44,0.0473660050598445
289.47,0.017675380227971
289.5,0.0046068395761015
289.53,0.0014085752021828
289.56,0.0033361909937411
289.59,0.0038525896532871
289.62,0.0044340187437077
289.65,0.0048263769527248
289.69,0.0050358310980479
289.72,0.0051314724312048
289.75,0.0051698240329431
289.78,0.0051836392753089
289.81,0.0051882441356947
289.84,0.0051898104926822
289.87,0.0051900203807558
289.9,0.0051900690333929
289.93,0.0051900793244486
289.97,0.005190081310447
290.0,0.0051900816605142
290.03,0.0051900817169097
290.06,0.0051900817251943
290.53,0.0051900817260434
290.56,0.0051900817241075
290.59,0.0051900817099624
290.62,0.005190081622125
290.65,0.0051900806163749
290.68,0.0051900761038098
290.71,0.005190055706949
290.74,0.0051899701363039
290.77,0.0051896420938521
290.81,0.005188499820586
290.84,0.0051848935192385
290.87,0.0051746369974855
290.9,0.0051246136651682
290.93,0.0050386424167823
290.96,0.0048952204144506
290.99,0.0046987558787495
291.02,0.0045478459354676
291.06,0.0047767308001267
291.09,0.0061474220709187
291.12,0.0100613634943906
291.15,0.0186120212688387
291.18,0.0328888353161634
291.21,0.0589382012510567
291.24,0.0972430127085165
291.27,0.1456432638381776
291.3,0.199003757017531
291.34,0.2497532731111188
291.37,0.289410674869981
291.4,0.3106185450099814
291.43,0.3091202144863819
291.46,0.2856355522195234
291.49,0.2425255389171288
291.52,0.1914565418911138
291.55,0.1392468000673356
291.58,0.0927719427595257
291.62,0.0561829096611412
291.65,0.030678521307886
291.68,0.0151561868484671
291.71,0.0072668821131006
291.74,0.0044635237057544
291.77,0.0046520721973153
291.8,0.0046117502266225
291.83,0.0047981655875511
291.86,0.004975936708765
291.9,0.0050892525792422
291.93,0.005147939699797
291.96,0.0051741181143563
291.99,0.0051845294304091
292.02,0.0051883616343586
292.05,0.0051898009184627
292.08,0.0051900126822037
292.11,0.0051900661889772
292.14,0.0051900785264009
292.18,0.005190081122537
292.21,0.0051900816220686
292.24,0.0051900817099129
292.27,0.0051900817240571
301.82,0.0051900817259818
301.86,0.0051900817249822
301.89,0.0051900817164387
301.92,0.0051900816649124
301.95,0.0051900813789761
301.98,0.005190078489666
302.01,0.0051900668773104
302.04,0.0051900192451899
302.07,0.005189836220478
302.1,0.0051891906895614
302.14,0.0051871076205468
302.17,0.0051809922768858
302.2,0.0051647334144287
302.23,0.0051259778579438
302.26,0.0049595154310261
302.29,0.0047402229217203
302.32,0.004493240146137
302.35,0.0043831207093223
302.38,0.0048817538470569
302.42,0.0070246657290269
302.45,0.0126206756301937
302.48,0.0243723976514181
302.51,0.0455777669898019
302.54,0.0777341767698015
302.57,0.1270558913967199
302.6,0.191446585603478
302.63,0.2648342002361216
302.66,0.3377542463762004
302.7,0.398960978445553
302.73,0.4379252522249193
302.76,0.4474397208694654
302.79,0.4268359306777492
302.82,0.3766802868939299
302.85,0.306505983803114
302.88,0.2322680910352188
302.91,0.1621580332293327
302.95,0.1034638115385027
302.98,0.0596329029663402
303.01,0.030641941655761
303.04,0.0141334451447346
303.07,0.0067965260554928
303.1,0.0054791213164874
303.13,0.0045854072426436
303.16,0.0045560205947237
303.19,0.0047598469237836
303.23,0.0049518245647077
303.26,0.0050750490773707
303.29,0.0051400483843951
303.32,0.005170137642339
303.35,0.0051830481849068
303.38,0.0051887381017483
303.41,0.0051897018678891
303.44,0.0051899830695419
303.47,0.0051900581422846
303.51,0.0051900765347405
303.54,0.0051900806722848
303.57,0.0051900815285898
303.6,0.0051900816918867
303.63,0.0051900817209187
303.66,0.0051900817261094
311.85,0.0051900817264559
311.88,0.0051900817264238
311.91,0.0051900817259427
311.94,0.0051900817204161
311.97,0.0051900816954953
312.0,0.005190081580594
312.03,0.0051900810826578
312.06,0.005190079084661
312.1,0.005190071692606
312.13,0.0051900464951641
312.16,0.005189967671069
312.19,0.0051897419545137
312.22,0.005188610150149
312.25,0.0051865630346757
312.28,0.0051828149135008
312.31,0.0051766732121692
312.34,0.0051688675779889
312.38,0.005164635859806
312.41,0.0051799751747699
312.44,0.0052505302125836
312.47,0.0053610419989057
312.5,0.0057804927866579
312.53,0.0066499121655646
312.56,0.0081077948307795
312.59,0.0102418501271055
312.63,0.0130306191407292
312.66,0.0162998241363017
312.69,0.0197125979617468
312.72,0.0228085216606421
312.75,0.0251907722383885
312.78,0.0262043139413552
312.81,0.0258413884057125
312.84,0.0241242695086105
312.87,0.0213642315762442
312.91,0.0180215385653265
312.94,0.0145921484917616
312.97,0.0115027847715557
313.0,0.0090380994835295
313.03,0.0073187949788144
313.06,0.0063213287285853
313.09,0.005683894437533
313.12,0.0053568773340578
313.15,0.0052146298920676
313.19,0.0051678084986979
313.22,0.0051618580758591
313.25,0.0051688383734939
313.28,0.0051772066110324
313.31,0.0051837172925136
313.34,0.0051883597333493
313.37,0.0051894111524812
313.4,0.0051898433091554
313.43,0.0051900038949433
313.47,0.0051900583125754
313.5,0.0051900752157352
313.53,0.0051900800432242
313.56,0.0051900813182664
313.59,0.0051900816352722
313.62,0.0051900817163378
313.65,0.0051900817246509
313.68,0.005190081726205
313.71,0.0051900817264734
315.86,0.0051900817265119
315.89,0.0051900817264876
315.92,0.0051900817263014
315.96,0.0051900817252435
315.99,0.0051900817196907
316.02,0.0051900816926882
316.05,0.0051900815709404
316.08,0.0051900805932183
316.11,0.0051900774346165
316.14,0.0051900668284965
316.17,0.0051900331350262
316.2,0.0051899342529455
316.24,0.0051896680947781
316.27,0.005189017650251
316.3,0.0051875845170532
316.33,0.0051847876845185
316.36,0.0051734863609992
316.39,0.0051630273621917
316.42,0.0051585147351728
316.45,0.0051730496295452
316.48,0.005233350939889
316.52,0.0053857422051995
316.55,0.0057014603702683
316.58,0.0062873704566797
316.61,0.0073037671844726
316.64,0.0083860719810143
316.67,0.0111439512282396
316.7,0.0164792998357772
316.73,0.025705228841225
316.76,0.0405523633415827
316.8,0.0628227550927006
316.83,0.09384441367631
316.86,0.1336858740990265
316.89,0.1804317756282924
316.92,0.2308392311020657
316.95,0.2769269144962811
316.98,0.3126037980439064
317.01,0.3313446592966344
317.04,0.3296703831570297
317.08,0.3076549784953166
317.11,0.2688917016363296
317.14,0.2196672570071866
317.17,0.1676234235209385
317.2,0.1191203503318415
317.23,0.0795441740062475
317.26,0.0493205265387859
317.29,0.0286222418215673
317.33,0.0158540594947412
317.36,0.0088766464241311
317.39,0.005633182328036
317.42,0.0045155244800421
317.45,0.0044724473621465
317.48,0.0049101676837064
317.51,0.0050190336707707
317.54,0.0051010993518469
317.57,0.0051490766574355
317.61,0.0051729935293604
317.64,0.0051835606760106
317.67,0.0051877745535926
317.7,0.0051893169437566
317.73,0.0051898516906209
317.76,0.005190044802644
317.79,0.0051900726095799
317.82,0.0051900796384625
317.85,0.0051900812825643
317.89,0.0051900816388724
317.92,0.0051900817104375
317.95,0.0051900817237739
317.98,0.005190081726083
319.57,0.0051900817264546
319.6,0.0051900817264928
319.63,0.0051900817263536
319.66,0.0051900817247064
319.69,0.0051900817171475
319.72,0.0051900816815631
319.75,0.0051900815234776
319.78,0.0051900808705887
319.82,0.005190078372976
319.85,0.005190069528317
319.88,0.005190040613246
319.91,0.0051899534954698
319.94,0.0051894931597843
319.97,0.005188587385079
320.0,0.005186749965263
320.03,0.0051832784221854
320.06,0.0051776591185718
320.1,0.0051708613061417
320.13,0.0051683127752829
320.16,0.0051856435050638
320.19,0.0052572293014176
320.22,0.0053649013324794
320.25,0.0057726552836074
320.28,0.0066190609396344
320.31,0.0080453658631643
320.34,0.0101523665606747
320.38,0.0129452480936135
320.41,0.0162838870941154
320.44,0.0198646024064312
320.47,0.0232471010183794
320.5,0.0260288682343224
320.53,0.0275094394218557
320.56,0.0276025090671473
320.59,0.0262473507975875
320.62,0.0236860071322608
320.66,0.0203432052026284
320.69,0.016723583566875
320.72,0.0132995176635062
320.75,0.0104260213402983
320.78,0.0082997113096282
320.81,0.0069533108308526
320.84,0.0060520157282072
320.87,0.0055459919390166
320.9,0.0052968980558579
320.94,0.0051941194834756
320.97,0.0051636380374195
321.0,0.0051628454371896
321.03,0.0051708238267679
321.06,0.0051795419195223
321.09,0.0051869864236537
321.12,0.0051887583234866
321.15,0.005189566630049
321.18,0.0051898975498954
321.22,0.0051900210276076
321.25,0.0051900631769806
321.28,0.0051900764390066
321.31,0.0051900803069215
321.34,0.0051900813754038
321.37,0.0051900816819221
321.4,0.0051900817173909
321.43,0.0051900817247842
321.46,0.0051900817262156
321.5,0.0051900817264702
325.04,0.0051900817264935
325.08,0.0051900817263838
325.11,0.0051900817257456
325.14,0.0051900817224783
325.17,0.0051900817069221
325.2,0.0051900815731937
325.23,0.0051900811080226
325.26,0.0051900794232871
325.29,0.0051900736243888
325.32,0.0051900550466495
325.36,0.0051900001164369
325.39,0.0051898505723445
325.42,0.0051894784812703
325.45,0.0051886407173941
325.48,0.0051850549257352
325.51,0.0051805711747285
325.54,0.0051757663886542
325.57,0.0051738832626108
325.6,0.0051841320582134
325.64,0.0052270680772205
325.67,0.0053404676321273
325.7,0.0055846954781498
325.73,0.0060414369840809
325.76,0.0067373287061419
325.79,0.00792351919526
325.82,0.0096227504277075
325.85,0.0117679996075468
325.88,0.0141876570610921
325.92,0.0166115844075313
325.95,0.0187110694344507
325.98,0.0201638970704062
326.01,0.0207243899833098
326.04,0.0203350111639402
326.07,0.0189224136327236
326.1,0.016896029820073
326.13,0.0145081992527904
326.16,0.0120876341432895
326.2,0.0099044728723824
326.23,0.008130325113755
326.26,0.0068313600757562
326.29,0.0059872550343339
326.32,0.0055224870569678
326.35,0.0053425374507684
326.38,0.0052297400208586
326.41,0.0051870704337843
326.44,0.0051767523770503
326.48,0.0051782305488982
326.51,0.0051822946877127
326.54,0.0051857020834602
326.57,0.0051878758571898
326.6,0.0051891235928845
326.63,0.0051898506048941
326.66,0.0051900001574388
326.69,0.0051900550910634
326.72,0.0051900736671742
326.76,0.0051900794594037
326.79,0.0051900811324298
326.82,0.0051900815808512
326.85,0.0051900816927894
326.88,0.005190081719268
326.91,0.0051900817257454
326.94,0.0051900817263795
326.97,0.0051900817264655
330.8,0.0051900817262992
330.83,0.0051900817252287
330.86,0.0051900817194303
330.9,0.0051900816901729
330.93,0.005190081552406
330.96,0.005190080947116
330.99,0.0051900784675436
331.02,0.0051900604019538
331.05,0.005190007301403
331.08,0.0051898433614111
331.11,0.0051893596452406
331.14,0.0051880330698549
331.18,0.005184687888491
331.21,0.0051769942475245
331.24,0.0051610891021679
331.27,0.005132354673305
331.3,0.0050160743905705
331.33,0.0049309989437914
331.36,0.004955081955765
331.39,0.0052762016931371
331.42,0.0062603330614354
331.46,0.0085284183519181
331.49,0.0129808508286515
331.52,0.0207633644507638
331.55,0.0322127729443049
331.58,0.050331381580124
331.61,0.0748974865937893
331.64,0.1046158322160218
331.67,0.1367275548816225
331.71,0.1674169527369502
331.74,0.192409399113284
331.77,0.2078287422703412
331.8,0.2110780109519477
331.83,0.2021085547988844
331.86,0.1806897314508688
331.89,0.1524697722079869
331.92,0.120765000581056
331.95,0.0896315690538948
331.99,0.0622187966306748
332.02,0.0403662380149372
332.05,0.0246221618091757
332.08,0.0145237786785302
332.11,0.009043342327752
332.14,0.0069819526685837
332.17,0.0056612442015393
332.2,0.0051606447067714
332.23,0.0050371578618258
332.27,0.0050526554450658
332.3,0.0050988817376902
332.33,0.0051381824034987
332.36,0.0051636255816456
332.39,0.0051784452863794
332.42,0.0051872347004113
332.45,0.0051890586181171
332.48,0.0051897410717499
332.51,0.0051899763334497
332.55,0.0051900513605962
332.58,0.0051900735541414
332.61,0.0051900796632564
332.64,0.0051900812331431
332.67,0.0051900816167661
332.7,0.0051900817142031
332.73,0.0051900817242235
332.76,0.0051900817261132
332.79,0.0051900817263972
332.83,0.0051900817261594
332.86,0.005190081724616
332.89,0.0051900817169448
332.92,0.0051900816815013
332.95,0.0051900813860162
332.98,0.0051900803850051
333.01,0.005190076834667
333.04,0.0051900648186077
333.07,0.0051900268196291
333.11,0.0051899155129911
333.14,0.0051896145163905
333.17,0.0051888660856365
333.2,0.00518717443526
333.23,0.0051798429830359
333.26,0.0051704819643745
333.29,0.0051598226164365
333.32,0.0051535202363162
333.35,0.0051692494287796
333.39,0.0052475484175446
333.42,0.0054671823675244
333.45,0.0059583631862609
333.48,0.0069110813555387
333.51,0.0083703936626672
333.54,0.011023869462431
333.57,0.0150144003756124
333.6,0.020297019478427
333.63,0.0265763369824603
333.67,0.033283422963603
333.7,0.0396282466961475
333.73,0.0447297954177924
333.76,0.0477907603984601
333.79,0.048444286650417
333.82,0.0461426247503761
333.85,0.0417341816659267
333.88,0.0357639112400127
333.91,0.0291051991321212
333.95,0.0225961413381861
333.98,0.0168893768415579
334.01,0.0123725543297156
334.04,0.0091692504628148
334.07,0.007184670434835
334.1,0.0062126982994108
334.13,0.0055903645631945
334.16,0.0052971526924525
334.2,0.0051829800813827
334.23,0.005152722863352
334.26,0.0051549848180689
334.29,0.0051659683163992
334.32,0.0051770218361693
334.35,0.0051862687637406
334.38,0.0051884403461547
334.41,0.005189433365908
334.44,0.0051898451093452
334.48,0.0051900016009293
334.51,0.0051900564409379
334.54,0.0051900742325105
334.57,0.0051900796217114
334.6,0.0051900811797724
334.63,0.0051900816522547
334.66,0.005190081710363
334.69,0.0051900817232343
334.72,0.0051900817258978
334.76,0.0051900817264129
334.79,0.0051900817265052
337.37,0.0051900817265112
337.4,0.0051900817264647
337.43,0.0051900817262108
337.46,0.0051900817249581
337.49,0.0051900817191728
337.53,0.0051900816941576
337.56,0.0051900815930721
337.59,0.0051900812114578
337.62,0.0051900798689345
337.65,0.0051900715016206
337.68,0.0051900508916275
337.71,0.0051899971282626
337.74,0.0051898626599761
337.77,0.0051895514769947
337.81,0.0051888972093591
337.84,0.0051876796475919
337.87,0.0051857686890905
337.9,0.0051835746554501
337.93,0.0051730529015193
337.96,0.0051761619058531
337.99,0.0052081681116985
338.02,0.0052960263025827
338.05,0.0054815485281519
338.09,0.0058213106698442
338.12,0.0063795215681082
338.15,0.0072160149787591
338.18,0.0083638251939036
338.21,0.0097961645214329
338.24,0.0114744835003031
338.27,0.0132379780311602
338.3,0.014857191571318
338.33,0.0161003562671092
338.37,0.0167758938741859
338.4,0.0167744276607192
338.43,0.016095957626709
338.46,0.0148498605039844
338.49,0.0132439518037417
338.52,0.0114672672165381
338.55,0.0097843659714859
338.58,0.0083204339329304
338.61,0.0071588866939966
338.65,0.0063159552098331
338.68,0.0057586051883331
338.71,0.0054270028736815
338.74,0.0052569742123915
338.77,0.0051918423955925
338.8,0.0051898478455084
338.83,0.0051830093645422
338.86,0.0051834653947586
338.9,0.0051856467917335
338.93,0.0051875592464709
338.96,0.0051887924373754
338.99,0.0051894764670498
339.02,0.0051898315451188
339.05,0.0051900240410908
339.08,0.0051900620313163
339.11,0.0051900754625924
339.14,0.0051900798685307
339.18,0.0051900812110184
339.21,0.0051900815926472
339.24,0.0051900816937973
