Wavelength (nm),Normalized
237.05,0.002769090943579
237.08,0.002769090943535
237.11,0.0027690909435049
237.14,0.0027690909434888
237.17,0.0027690909434865
237.2,0.0027690909434982
237.23,0.0027690909431188
237.26,0.0027690909388482
237.28,0.0027690908966461
237.31,0.0027690905307314
237.34,0.0027690877484541
237.37,0.0027690692166053
237.4,0.0027689612355883
237.43,0.0027684121032223
237.46,0.0027659816209965
237.49,0.0027566471295582
237.52,0.0027257870406507
237.55,0.0026387906848462
237.58,0.0024339131890488
237.61,0.0023482953472471
237.64,0.0020294976440716
237.67,0.001748434639247
237.7,0.0024178445670251
237.73,0.0059574798645186
237.75,0.0152897459318509
237.78,0.0335508713668168
237.81,0.0625686076304214
237.84,0.1012323559995628
237.87,0.1446842147722389
237.9,0.1852393563486031
237.93,0.2139313931055638
237.96,0.2243145543380088
237.99,0.2139313931055638
238.02,0.1852393563486031
238.05,0.1446842147722389
238.08,0.1012323559995628
238.11,0.0625686076304214
238.14,0.0335508713668168
238.17,0.0152897459318509
238.19,0.0059574798645186
238.22,0.0024178445670251
238.25,0.001748434639247
238.28,0.0020294976440716
238.31,0.0023482953472471
238.34,0.0024339131890488
238.37,0.0026387906848462
238.4,0.0027257870406507
238.43,0.0027566471295582
238.46,0.0027659816209965
238.49,0.0027684121032223
238.52,0.0027689612355883
238.55,0.0027690692166053
238.58,0.0027690877484541
238.61,0.0027690905307314
238.64,0.0027690908966461
238.66,0.0027690909388482
238.69,0.0027690909431188
238.72,0.0027690909434982
238.75,0.0027690909435278
238.78,0.0027690909435298
238.81,0.0027690909435299
238.84,0.00276909094353
252.11,0.00276909094353
252.14,0.00276909094353
252.17,0.00276909094353
252.2,0.00276909094353
252.23,0.00276909094353
252.26,0.00276909094353
252.29,0.00276909094353
252.32,0.00276909094353
252.35,0.00276909094353
252.38,0.00276909094353
252.41,0.00276909094353
252.44,0.00276909094353
252.47,0.00276909094353
252.5,0.00276909094353
252.53,0.00276909094353
252.56,0.00276909094353
252.58,0.00276909094353
252.61,0.00276909094353
252.64,0.00276909094353
252.67,0.00276909094353
252.7,0.00276909094353
252.73,0.00276909094353
252.76,0.00276909094353
252.79,0.00276909094353
252.82,0.00276909094353
252.85,0.00276909094353
252.88,0.00276909094353
252.91,0.00276909094353
252.94,0.00276909094353
252.97,0.00276909094353
253.0,0.00276909094353
253.03,0.00276909094353
253.05,0.00276909094353
253.08,0.00276909094353
253.11,0.00276909094353
253.14,0.00276909094353
253.17,0.00276909094353
253.2,0.00276909094353
253.23,0.00276909094353
253.26,0.00276909094353
253.29,0.00276909094353
253.32,0.00276909094353
253.35,0.00276909094353
253.38,0.00276909094353
253.41,0.00276909094353
253.44,0.00276909094353
253.47,0.00276909094353
253.5,0.00276909094353
253.52,0.00276909094353
253.55,0.00276909094353
253.58,0.00276909094353
253.61,0.00276909094353
253.64,0.00276909094353
253.67,0.00276909094353
253.7,0.00276909094353
253.73,0.00276909094353
253.76,0.00276909094353
253.79,0.00276909094353
253.82,0.00276909094353
253.85,0.00276909094353
253.88,0.00276909094353
253.91,0.00276909094353
253.94,0.00276909094353
253.97,0.00276909094353
253.99,0.00276909094353
257.05,0.00276909094353
257.08,0.00276909094353
257.11,0.00276909094353
257.14,0.0027690909435299
257.17,0.0027690909435291
257.2,0.0027690909435201
257.22,0.0027690909434258
257.25,0.0027690909425443
257.28,0.0027690909351671
257.31,0.0027690908799554
257.34,0.0027690905105354
257.37,0.0027690883035631
257.4,0.0027690765381139
257.43,0.0027690206633453
257.46,0.0027687849595296
257.49,0.0027679041002927
257.52,0.0027650009418563
257.55,0.0027617830601328
257.58,0.0027482043648916
257.61,0.0027146241744692
257.64,0.0026513924381298
257.67,0.0025659351209373
257.69,0.0025235658263883
257.72,0.0027141607320861
257.75,0.0035177398302254
257.78,0.0055224193264056
257.81,0.0094152848551859
257.84,0.015732838613583
257.87,0.0245060437661671
257.9,0.0350215707905542
257.93,0.0458022880771575
257.96,0.0549129240529487
257.99,0.0604964552752599
258.02,0.0611053248358895
258.05,0.0571552109704735
258.08,0.0493632791881152
258.11,0.0392849555752158
258.14,0.0288024757263839
258.16,0.0195387911555272
258.19,0.0124513715823763
258.22,0.0077238004567288
258.25,0.004948791689231
258.28,0.003455369891333
258.31,0.0026008739792653
258.34,0.0025191016082988
258.37,0.0025889010524547
258.4,0.0026705486159055
258.43,0.0027242292504202
258.46,0.0027515229278317
258.49,0.002763078931842
258.52,0.0027672742748789
258.55,0.0027686039636297
258.58,0.0027689747357752
258.6,0.002769066207013
258.63,0.0027690862427841
258.66,0.0027690901475305
258.69,0.0027690908248109
258.72,0.0027690909278189
258.75,0.0027690909393794
258.78,0.0027690909430582
258.81,0.0027690909434819
258.84,0.0027690909435256
258.87,0.0027690909435296
258.9,0.0027690909435299
258.93,0.00276909094353
258.96,0.00276909094353
275.76,0.00276909094353
275.78,0.00276909094353
275.81,0.0027690909435299
275.84,0.0027690909435297
275.87,0.0027690909435269
275.9,0.0027690909434971
275.93,0.0027690909432137
275.96,0.0027690909407559
275.99,0.0027690909213991
276.02,0.0027690907830518
276.05,0.0027690898863584
276.08,0.0027690846146321
276.11,0.0027690727567123
276.14,0.0027689951184853
276.17,0.0027686324158122
276.2,0.0027671498421702
276.23,0.002761716606475
276.25,0.0027438744815814
276.28,0.0026915697808503
276.31,0.0025560434520404
276.34,0.0022497413391205
276.37,0.0016640786699615
276.4,0.0007838092730969
276.43,0.0
276.46,0.0007274350656842
276.49,0.0062313037611762
276.52,0.0224550258726885
276.55,0.0634708785637987
276.58,0.1259514079929145
276.61,0.2186357257123064
276.64,0.3453315435146901
276.67,0.5008559486077687
276.69,0.669316694024347
276.72,0.8260791477175308
276.75,0.9437452962410154
276.78,1.0
276.81,0.9846849299149368
276.84,0.90300867758541
276.87,0.7599599482070797
276.9,0.5877688317427494
276.93,0.4153196748142743
276.96,0.2657382890892012
276.99,0.1518934057048712
277.02,0.0758001477445817
277.05,0.0316923889282018
277.08,0.0101048457461682
277.11,0.0018402021965839
277.14,2.810297811177722e-05
277.16,0.0005488120856417
277.19,0.0014735997175876
277.22,0.0021570373168113
277.25,0.0025262542395185
277.28,0.0026792159118308
277.31,0.0027151238093342
277.34,0.0027521497260496
277.37,0.0027642997499206
277.4,0.0027678675696602
277.43,0.0027688081779725
277.46,0.0027690317347731
277.49,0.0027690796946753
277.52,0.0027690890029153
277.55,0.0027690906395851
277.58,0.002769090900252
277.61,0.0027690909379281
277.63,0.0027690909428706
277.66,0.0027690909434594
277.69,0.0027690909435231
277.72,0.0027690909435294
277.75,0.0027690909435299
277.78,0.00276909094353
290.76,0.00276909094353
290.79,0.00276909094353
290.82,0.0027690909435299
290.85,0.0027690909435298
290.88,0.0027690909435283
290.91,0.0027690909435152
290.94,0.002769090943472
290.97,0.0027690909430585
291.0,0.0027690909400511
291.03,0.0027690909203346
291.06,0.0027690908019795
291.08,0.0027690901527454
291.11,0.0027690868931162
291.14,0.0027690719289924
291.17,0.002769009263578
291.2,0.0027687700106586
291.23,0.0027679402732995
291.26,0.0027653313847228
291.29,0.0027579421778003
291.32,0.0027392023524843
291.35,0.0026972593132175
291.38,0.0026166263960051
291.41,0.0026325300752545
291.44,0.0025882187908111
291.47,0.0025983310494413
291.5,0.0029869672195777
291.53,0.0044370411390867
291.55,0.0081073339165718
291.58,0.0156287869154293
291.61,0.0288372539140795
291.64,0.0491927569428486
291.67,0.0770981659440855
291.7,0.1111796571497574
291.73,0.1477111248217507
291.76,0.181672107269792
291.79,0.2074065542330038
291.82,0.220200050158351
291.85,0.217588375620172
291.88,0.1994942732333044
291.91,0.1707822859631489
291.94,0.136147285677284
291.97,0.1008779811201452
292.0,0.06940207799061
292.02,0.044406881698769
292.05,0.026662041323893
292.08,0.0153152050521596
292.11,0.0086952588285779
292.14,0.0049886651709896
292.17,0.0027077906345311
292.2,0.0023469997267068
292.23,0.0023980017530183
292.26,0.0025367619352366
292.29,0.0026486578676646
292.32,0.00271477490197
292.35,0.0027473140849366
292.38,0.0027612433501672
292.41,0.0027665299657336
292.44,0.0027683313827653
292.47,0.0027688855675389
292.49,0.0027690402332547
292.52,0.0027690795071921
292.55,0.0027690885971057
292.58,0.0027690905118162
292.61,0.0027690908709507
292.64,0.0027690909203136
292.67,0.0027690909400335
292.7,0.0027690909430468
292.73,0.0027690909434687
292.76,0.0027690909435228
292.79,0.0027690909435292
292.82,0.0027690909435299
292.85,0.00276909094353
292.88,0.00276909094353
321.8,0.00276909094353
321.83,0.00276909094353
321.86,0.00276909094353
321.89,0.00276909094353
321.92,0.0027690909435299
321.95,0.0027690909435296
321.98,0.0027690909435271
322.01,0.0027690909435204
322.04,0.0027690909434663
322.07,0.0027690909431361
322.1,0.0027690909413012
322.13,0.002769090931836
322.15,0.002769090886451
322.18,0.0027690906842048
322.21,0.0027690898474648
322.24,0.0027690866346375
322.27,0.0027690752150009
322.3,0.002769037633538
322.33,0.0027689236111449
322.36,0.0027686055911198
322.39,0.0027677941562837
322.42,0.0027659212962227
322.45,0.0027620500561509
322.48,0.0027621302151759
322.51,0.0027572979907855
322.54,0.0027496859809873
322.57,0.0027494337559262
322.6,0.0027840986289348
322.62,0.0029128919572236
322.65,0.0032417609271541
322.68,0.0039340278527787
322.71,0.0052059786846204
322.74,0.0072952652281322
322.77,0.0104013432375429
322.8,0.0145812338082767
322.83,0.0197010571908151
322.86,0.0253688264836536
322.89,0.0309647579749617
322.92,0.0357339796059278
322.95,0.0387800464556944
322.98,0.0399696107618379
323.01,0.0390659187233325
323.04,0.0361897981783876
323.07,0.0317901396623941
323.09,0.0265194908787237
323.12,0.0210742619425247
323.15,0.0160321893234941
323.18,0.0117581464497963
323.21,0.0083733356007001
323.24,0.0058029872224313
323.27,0.0042795610093554
323.3,0.0034158680427245
323.33,0.0029834055743515
323.36,0.0028002369269133
323.39,0.0027420438497193
323.42,0.0027357719477765
323.45,0.002745010553611
323.48,0.0027551124160614
323.51,0.0027620565962322
323.54,0.0027659298184048
323.56,0.00276780358975
323.59,0.002768614847181
323.62,0.0027689315974757
323.65,0.0027690432571258
323.68,0.0027690773827138
323.71,0.0027690842533194
323.74,0.0027690891991879
323.77,0.0027690905209353
323.8,0.00276909084824
323.83,0.0027690909235352
323.86,0.0027690909396205
323.89,0.0027690909428181
323.92,0.0027690909434092
323.95,0.0027690909435109
323.98,0.0027690909435271
324.01,0.0027690909435296
324.03,0.0027690909435299
324.06,0.00276909094353
324.09,0.00276909094353
324.12,0.00276909094353
350.67,0.00276909094353
350.7,0.00276909094353
350.73,0.0027690909435299
350.76,0.0027690909435296
350.79,0.0027690909435287
350.82,0.0027690909435214
350.85,0.0027690909434757
350.88,0.0027690909432113
350.91,0.0027690909417738
350.93,0.0027690909344168
350.96,0.002769090898991
350.99,0.0027690907386055
351.02,0.0027690900552784
351.05,0.0027690873197962
351.08,0.0027690770493304
351.11,0.0027690408209284
351.14,0.0027689211921288
351.17,0.002768551201746
351.2,0.0027674847957722
351.23,0.0027646194589082
351.26,0.0027625939673989
351.29,0.0027525486663613
351.32,0.0027272400288768
351.35,0.002675875458912
351.38,0.0025877004994521
351.4,0.0024675110306005
351.43,0.0023754450543487
351.46,0.002505859221838
351.49,0.0033383002639517
351.52,0.0058424142546211
351.55,0.0117392370965304
351.58,0.0237115885649925
351.61,0.0455118457779283
351.64,0.0816084816048366
351.67,0.1365458173203123
351.7,0.2169331755594884
351.73,0.3151730283712
351.76,0.4297929544931358
351.79,0.5549970626122149
351.82,0.680660965845468
351.84,0.793555264311718
351.87,0.879819097664173
351.9,0.9278925753805302
351.93,0.9311531800460175
351.96,0.8896009116606357
351.99,0.809858287639156
352.02,0.6953187299380269
352.05,0.5648259409940632
352.08,0.433511838640048
352.11,0.3137981899269265
352.14,0.2137024846982713
352.17,0.1364130000293511
352.2,0.081576928524092
352.23,0.0456605875828802
352.26,0.0240392795332993
352.29,0.0122056769042196
352.31,0.0063914116550837
352.34,0.0038997548892947
352.37,0.0030083239208837
352.4,0.0027466435450352
352.43,0.0026375411203983
352.46,0.0024981531626164
352.49,0.0026373177639931
352.52,0.0028568499884751
352.55,0.0033075899946712
352.58,0.0042446682318469
352.61,0.0060367276663553
352.64,0.0096080498885261
352.67,0.0145434466907222
352.7,0.0213876517192859
352.73,0.0305498894062946
352.76,0.0421443363552909
352.78,0.0558273092793541
352.81,0.0707291221526736
352.84,0.0855067648187198
352.87,0.0985418446273557
352.9,0.1082491134235763
352.93,0.1134329363932247
352.96,0.112454715108506
352.99,0.105836983902418
353.02,0.0945472748602865
353.05,0.0801537254410739
353.08,0.0644716050005968
353.11,0.0491313594578594
353.14,0.0356602321071329
353.17,0.0247502568734259
353.2,0.0165776436133238
353.23,0.0109113045991802
353.25,0.0072780764371178
353.28,0.0051241070353214
353.31,0.0039390048716482
353.34,0.003316718243895
353.37,0.0029752517852502
353.4,0.0027414943909682
353.43,0.0027228232580774
353.46,0.0027325510848364
353.49,0.0027464484604057
353.52,0.0027569425425589
353.55,0.0027632287694678
353.58,0.0027665038412129
353.61,0.0027680349884965
353.64,0.0027686908498125
353.67,0.002768949402993
353.7,0.0027690441206189
353.72,0.0027690764350921
353.75,0.0027690867447097
353.78,0.0027690898155068
353.81,0.0027690906669773
353.84,0.0027690908790322
353.87,0.0027690909163154
353.9,0.0027690909375639
353.93,0.0027690909422976
353.96,0.00276909094329
353.99,0.0027690909434859
354.02,0.0027690909435223
354.05,0.0027690909435287
354.08,0.0027690909435298
354.11,0.0027690909435299
354.14,0.00276909094353
354.16,0.00276909094353
354.19,0.00276909094353
376.25,0.00276909094353
376.28,0.00276909094353
376.31,0.0027690909435299
376.34,0.0027690909435298
376.37,0.0027690909435292
376.4,0.0027690909435258
376.43,0.0027690909435069
376.45,0.00276909094341
376.48,0.0027690909429377
376.51,0.0027690909407521
376.54,0.0027690909311644
376.57,0.0027690908912945
376.6,0.0027690907341158
376.63,0.0027690901475623
376.66,0.0027690880759284
376.69,0.0027690811513679
376.72,0.0027690593021117
376.75,0.0027690359821229
376.78,0.0027689224756939
376.81,0.0027685834847648
376.84,0.0027677053192184
376.87,0.002765628019307
376.89,0.0027610898128839
376.92,0.0027520392200476
376.95,0.0027358495153479
376.98,0.0027111276682486
377.01,0.0026827232083675
377.04,0.0026753575423132
377.07,0.0027578226288406
377.1,0.0030881535262709
377.13,0.0039780000681595
377.16,0.0059774184042147
377.19,0.0099672863594138
377.22,0.018593908207392
377.25,0.0306280625527187
377.28,0.0478628705705286
377.31,0.0722094167282688
377.34,0.1051816482324883
377.36,0.1474322404187902
377.39,0.1982792143889079
377.42,0.2553798007625183
377.45,0.31472918728597
377.48,0.3710977230414721
377.51,0.4188476929359113
377.54,0.4495122140384128
377.57,0.4601886502079261
377.6,0.4495122140384128
377.63,0.4188476929359113
377.66,0.372191850346471
377.69,0.3144556554597203
377.72,0.2540425340564086
377.75,0.1961821370543268
377.78,0.1448792767071262
377.81,0.10247672239513
377.83,0.0696564530166048
377.86,0.0457657932359474
377.89,0.029290795846609
377.92,0.0183203763811423
377.95,0.0110614136644126
377.98,0.0059774184042147
378.01,0.0039780000681595
378.04,0.0030881535262709
378.07,0.0027578226288406
378.1,0.0026753575423132
378.13,0.0026827368634208
378.16,0.0027111242544852
378.19,0.0027358328258382
378.22,0.0027520130478619
378.25,0.0027610579510926
378.28,0.0027655942609806
378.3,0.0027676734574272
378.33,0.0027685573125791
378.36,0.0027689057861842
378.39,0.0027690325683595
378.42,0.0027690729571651
378.45,0.0027690811513679
378.48,0.0027690880759284
378.51,0.0027690901475623
378.54,0.0027690907341158
378.57,0.0027690908912945
378.6,0.0027690909311644
378.63,0.0027690909407521
378.66,0.0027690909429377
378.69,0.00276909094341
378.72,0.0027690909435069
378.74,0.0027690909435257
378.77,0.0027690909435292
378.8,0.0027690909435298
378.83,0.0027690909435299
378.86,0.00276909094353
378.89,0.00276909094353
533.24,0.00276909094353
533.27,0.00276909094353
533.3,0.00276909094353
533.33,0.0027690909435299
533.36,0.0027690909435299
533.39,0.0027690909435297
533.42,0.0027690909435291
533.45,0.0027690909435271
533.48,0.0027690909435204
533.51,0.0027690909434996
533.54,0.0027690909434773
533.57,0.0027690909433611
533.6,0.0027690909429841
533.63,0.0027690909418856
533.66,0.002769090938833
533.68,0.0027690909306248
533.71,0.002769090909235
533.74,0.0027690908551308
533.77,0.0027690907225019
533.8,0.0027690904078036
533.83,0.0027690896850902
533.86,0.0027690880862993
533.89,0.0027690846797324
533.92,0.0027690777112517
533.95,0.0027690641670994
533.98,0.0027690391635851
534.01,0.0027690724531486
534.04,0.002769064964057
534.07,0.0027690163595096
534.1,0.0027689484611128
534.13,0.0027689470963014
534.15,0.0027692521174322
534.18,0.0027704390407084
534.21,0.0027737666063478
534.24,0.0027818135565024
534.27,0.0027995288137203
534.3,0.002835967548599
534.33,0.0029068442515062
534.36,0.003038460874157
534.39,0.0032730018992305
534.42,0.0036759179487229
534.45,0.0043434543825177
534.48,0.0056215943405779
534.51,0.0072881095270701
534.54,0.0095726981534899
534.57,0.0127581876610513
534.6,0.0171898435774955
534.62,0.0232567842699227
534.65,0.0313703333217688
534.68,0.0419304207466987
534.71,0.0552746976132893
534.74,0.071627389821338
534.77,0.091038545159643
534.8,0.112804786388616
534.83,0.1364771751107794
534.86,0.1612103871025205
534.89,0.1858629514779483
534.92,0.2091499307458902
534.95,0.2294040491115242
534.98,0.245764666483451
535.01,0.2572908142345368
535.04,0.2632369605922153
535.07,0.2632230008168891
535.09,0.257248934908558
535.12,0.2456948676068198
535.15,0.2293063306842405
535.18,0.209024292767954
535.21,0.1859634618602973
535.24,0.1612103871025205
535.27,0.1364771751107794
535.3,0.112804786388616
535.33,0.091038545159643
535.36,0.0717821758101554
535.39,0.0552360011160849
535.42,0.0417412378714774
535.45,0.0310736601765354
535.48,0.0228956169626821
535.51,0.0168071782162524
535.53,0.0123970203538106
535.56,0.0092760250082565
535.59,0.0070989266518488
535.62,0.0055828978433735
535.65,0.0044982403713351
535.68,0.0036759179487229
535.71,0.0032730018992305
535.74,0.003038460874157
535.77,0.0029068442515062
535.8,0.002835967548599
535.83,0.0027995654282167
535.86,0.0027818044028783
535.89,0.0027737218552967
535.92,0.0027703688629236
535.95,0.0027691666836072
535.98,0.0027688565771297
536.0,0.0027688630272878
536.03,0.0027689461817248
536.06,0.0027690202130058
536.09,0.0027690632995245
536.12,0.0027690757780815
536.15,0.0027690641670994
536.18,0.0027690777112517
536.21,0.0027690846797324
536.24,0.0027690880862993
536.27,0.0027690896850902
536.3,0.0027690904078169
536.33,0.0027690907224985
536.36,0.0027690908551144
536.39,0.0027690909092093
536.42,0.0027690909305936
536.45,0.0027690909387999
536.47,0.0027690909418544
536.5,0.0027690909429585
536.53,0.0027690909433447
536.56,0.002769090943474
536.59,0.002769090943513
536.62,0.0027690909435204
536.65,0.0027690909435271
536.68,0.0027690909435291
536.71,0.0027690909435286
536.74,0.0027690909435286
536.77,0.0027690909435291
536.8,0.0027690909435301
536.83,0.0027690909435316
252.11,0.0046240748976212
252.14,0.004624074897437
252.17,0.0046240748973112
252.2,0.0046240748972438
252.23,0.0046240748972348
252.26,0.0046240748972841
252.29,0.004624074895942
252.32,0.0046240748827277
252.35,0.0046240747667053
252.38,0.0046240738596884
252.41,0.0046240675492956
252.44,0.0046240512115683
252.47,0.0046239319280501
252.5,0.0046233095206296
252.53,0.0046205022873098
252.56,0.0046093608502361
252.58,0.0045704659022306
252.61,0.0044519204972151
252.64,0.0041399982405909
252.67,0.003445137531559
252.7,0.0021888298274095
252.73,0.0005737126324478
252.76,1.2366125283861566e-07
252.79,0.0043581663517863
252.82,0.0211415567128162
252.85,0.0614185118740956
252.88,0.1371539839721104
252.91,0.2577029147286783
252.94,0.4135460255373422
252.97,0.5932437202207249
253.0,0.7720856704660217
