Wavelength (nm),Normalized
225.65,0.0005978310733742
225.67,0.0005978310632865
225.7,0.0005978310564637
225.72,0.0005978310529059
225.75,0.0005978310526131
225.77,0.0005978310555853
225.79,0.0005978309922731
225.82,0.0005978307722884
225.84,0.0005978299450166
225.87,0.0005978223927728
225.89,0.0005978025730843
225.92,0.0005976618458328
225.94,0.0005973677140529
225.96,0.0005956697163005
225.99,0.0005929545561035
226.01,0.0005800682114919
226.04,0.0005659805551671
226.06,0.0005529340352053
226.09,0.0004762621149194
226.11,0.000486062408769
226.14,0.0004537812938447
226.16,0.0009216471697004
226.18,0.0017828629287136
226.21,0.0040995674037749
226.23,0.0078332474495342
226.26,0.0138273393735614
226.28,0.0217347722809326
226.31,0.0309913297870131
226.33,0.0401970586859133
226.36,0.0483970954251559
226.38,0.053345096264632
226.4,0.0548257545452514
226.43,0.051701271170478
226.45,0.0453215298076688
226.48,0.036552510497025
226.5,0.0273015932927005
226.53,0.0186058082926147
226.55,0.0115326876349568
226.57,0.0063966351155593
226.6,0.0034094487831853
226.62,0.0015750388942426
226.65,0.0009336284344269
226.67,0.0005036277558073
226.7,0.0004068294989215
226.72,0.0005054317261474
226.75,0.0005307379988623
226.77,0.0005750303117915
226.79,0.0005857646226562
226.82,0.0005947111053923
226.84,0.000596517924432
226.87,0.0005975768975954
226.89,0.0005977394726826
226.92,0.0005978010139301
226.94,0.0005978266582513
226.97,0.0005978298458218
226.99,0.0005978309206762
227.01,0.000597831022262
227.04,0.0005978310253388
227.06,0.0005978309093267
227.09,0.000597829614646
227.11,0.0005978255277533
227.14,0.0005977904250307
227.16,0.0005977002348679
227.18,0.0005970711544577
227.21,0.0005957799722133
227.23,0.0005884256250228
227.26,0.0005768845027621
227.28,0.0005575689686479
227.31,0.0004564501316122
227.33,0.0003724833234431
227.36,4.181651867011867e-05
227.38,8.949298641566737e-05
227.4,0.0
227.43,0.0019846830728177
227.45,0.00560895241333
227.48,0.0151390549344391
227.5,0.0315405640542169
227.53,0.0544353310127377
227.55,0.0851957616766882
227.58,0.1216240920404889
227.6,0.1580799649993134
227.62,0.1907046102772262
227.65,0.2105931840352909
227.67,0.2167243765399917
227.7,0.2049603938960446
227.72,0.1809633479048623
227.75,0.1476487342650529
227.77,0.1123543483523123
227.8,0.0825855473106272
227.82,0.0658802386235579
227.84,0.0633063238163453
227.87,0.0781581739976142
227.89,0.1043678523832926
227.92,0.1392950915508833
227.94,0.1728421699640037
227.97,0.2011122057750394
227.99,0.2152393826068543
228.01,0.2145414611559161
228.04,0.1962308408837632
228.06,0.1670735908778076
228.09,0.1298533516048344
228.11,0.0929168867193947
228.14,0.0600646789865197
228.16,0.0348796055620532
228.19,0.0172763858741401
228.21,0.0078374802456149
228.23,0.002298003153195
228.26,0.0008721264351642
228.28,3.810931687599474e-05
228.31,0.0003207892416754
228.33,0.0002969859662743
228.36,0.0003912555631955
228.38,0.0005302143471404
228.41,0.0005630527392445
228.43,0.0005890319552895
228.45,0.0005941721365865
228.48,0.0005971053840342
228.5,0.0005975817187117
228.53,0.00059779335324
228.55,0.0005978199562163
228.58,0.0005978280355417
228.6,0.0005978307171078
228.62,0.0005978309824795
228.65,0.0005978310550922
228.67,0.0005978310609063
228.7,0.0005978310622272
228.72,0.0005978310623111
228.75,0.0005978310623252
228.77,0.0005978310623277
229.21,0.0005978310623278
229.23,0.0005978310623269
229.26,0.0005978310623217
229.28,0.0005978310622346
229.31,0.0005978310618224
229.33,0.0005978310597486
229.36,0.0005978310330636
229.38,0.0005978309348871
229.41,0.0005978299345699
229.43,0.0005978268915205
229.45,0.0005978016616252
229.48,0.0005977390038136
229.5,0.0005973144650008
229.53,0.0005964720704763
229.55,0.0005946281678361
229.58,0.0005839907800985
229.6,0.0005698471685673
229.63,0.000508188684463
229.65,0.0004611162288758
229.67,0.000277671993777
229.7,0.0003290038658427
229.72,0.0008096053308934
229.75,0.0014204640327606
229.77,0.0039146386851376
229.8,0.0081336700838235
229.82,0.0165445357678324
229.84,0.0289076237526925
229.87,0.0459338451833559
229.89,0.0663425391042911
229.92,0.0870399163202461
229.94,0.1051706267803106
229.97,0.11816081497951
229.99,0.1223293142558496
230.02,0.1183612038311521
230.04,0.1069531005071178
230.06,0.0922927965548781
230.09,0.0789753588384879
230.11,0.0711586649445313
230.14,0.0720691519733325
230.16,0.0810709681498206
230.19,0.0968621657824277
230.21,0.1150364567983504
230.24,0.1307329685241413
230.26,0.1389491618286944
230.28,0.1379381245606435
230.31,0.1270369235895234
230.33,0.1103158668636725
230.36,0.0901453307309049
230.38,0.0741330675329751
230.41,0.0645979924533109
230.43,0.0661619242544831
230.45,0.077842290742724
230.48,0.0980032067346459
230.5,0.1214453155600616
230.53,0.1421657152226705
230.55,0.155069948122328
230.58,0.1585310903027356
230.6,0.1493643480129829
230.63,0.1312732909827877
230.65,0.1057216763549136
230.67,0.0790222339631289
230.7,0.0539023686207519
230.72,0.0334570911491393
230.75,0.0189859971813135
230.77,0.008798592672594
230.8,0.0031235390143061
230.82,0.0011871526145747
230.85,0.000115420462582
230.87,0.0002571483132117
230.89,0.0002585490866335
230.92,0.0004649943143255
230.94,0.0005166715492868
230.97,0.0005751521790248
230.99,0.000586216383084
231.02,0.0005926639318527
231.04,0.0005967144327658
231.06,0.0005974191811287
231.09,0.0005977605258921
231.11,0.0005978092627191
231.14,0.0005978281835461
231.16,0.0005978302984274
231.19,0.0005978308733669
231.21,0.0005978310434483
231.24,0.0005978310583448
231.26,0.0005978310620098
231.28,0.0005978310622705
231.31,0.0005978310623242
231.33,0.0005978310623273
232.36,0.0005978310623278
232.38,0.0005978310623279
232.41,0.0005978310623279
232.43,0.0005978310623279
232.46,0.0005978310623279
232.48,0.0005978310623279
232.5,0.0005978310623279
232.53,0.0005978310623279
232.55,0.0005978310623279
232.58,0.0005978310623279
232.6,0.0005978310623279
232.63,0.0005978310623279
232.65,0.0005978310623279
232.68,0.0005978310623279
232.7,0.0005978310623279
232.72,0.0005978310623279
232.75,0.0005978310623279
232.77,0.0005978310623279
232.8,0.0005978310623279
232.82,0.0005978310623279
232.85,0.0005978310623279
232.87,0.0005978310623279
232.9,0.0005978310623279
232.92,0.0005978310623279
232.94,0.0005978310623279
232.97,0.0005978310623279
232.99,0.0005978310623279
233.02,0.0005978310623279
233.04,0.0005978310623279
233.07,0.0005978310623279
233.09,0.0005978310623279
233.11,0.0005978310623279
233.14,0.0005978310623279
233.16,0.0005978310623279
233.19,0.0005978310623279
233.21,0.0005978310623279
233.24,0.0005978310623279
233.26,0.0005978310623279
233.29,0.0005978310623279
233.31,0.0005978310623279
233.33,0.0005978310623279
233.36,0.0005978310623279
233.38,0.0005978310623279
233.41,0.0005978310623279
233.43,0.0005978310623279
233.46,0.0005978310623279
233.48,0.0005978310623279
233.51,0.0005978310623279
233.53,0.0005978310623279
233.55,0.0005978310623279
233.58,0.0005978310623279
233.6,0.0005978310623279
233.63,0.0005978310623279
233.65,0.0005978310623279
233.68,0.0005978310623279
233.7,0.0005978310623279
233.72,0.0005978310623279
233.75,0.0005978310623279
233.77,0.0005978310623279
233.8,0.0005978310623279
233.82,0.0005978310623279
233.85,0.0005978310623279
233.87,0.0005978310623279
233.9,0.0005978310623279
233.92,0.0005978310623279
233.94,0.0005978310623279
233.97,0.0005978310623279
233.99,0.0005978310623279
234.02,0.0005978310623279
234.04,0.0005978310623279
234.07,0.0005978310623279
234.09,0.0005978310623279
234.12,0.0005978310623279
234.14,0.0005978310623279
234.16,0.0005978310623279
234.19,0.0005978310623279
234.21,0.0005978310623279
234.24,0.0005978310623279
234.26,0.0005978310623279
234.29,0.0005978310623279
234.31,0.0005978310623279
234.33,0.0005978310623279
234.36,0.0005978310623279
234.38,0.0005978310623279
234.41,0.0005978310623279
234.43,0.0005978310623279
234.46,0.0005978310623279
234.48,0.0005978310623279
234.51,0.0005978310623279
234.53,0.0005978310623279
234.55,0.0005978310623279
234.58,0.0005978310623279
234.6,0.0005978310623279
234.63,0.0005978310623279
234.65,0.0005978310623279
234.68,0.0005978310623279
234.7,0.0005978310623279
234.73,0.0005978310623279
234.75,0.0005978310623279
234.77,0.0005978310623279
234.8,0.0005978310623279
234.82,0.0005978310623279
234.85,0.0005978310623279
234.87,0.0005978310623279
234.9,0.0005978310623279
234.92,0.0005978310623279
234.94,0.0005978310623279
234.97,0.0005978310623279
234.99,0.0005978310623279
235.02,0.0005978310623279
235.04,0.0005978310623279
235.07,0.0005978310623279
235.09,0.0005978310623279
235.12,0.0005978310623279
235.14,0.0005978310623279
235.16,0.0005978310623279
235.19,0.0005978310623279
235.21,0.0005978310623279
235.24,0.0005978310623279
235.26,0.0005978310623279
235.29,0.0005978310623279
235.31,0.0005978310623279
235.34,0.0005978310623279
235.36,0.0005978310623279
235.38,0.0005978310623279
235.41,0.0005978310623279
235.43,0.0005978310623279
235.46,0.0005978310623279
236.7,0.0005978310623279
236.73,0.0005978310623279
236.75,0.0005978310623279
236.78,0.0005978310623279
236.8,0.0005978310623279
236.82,0.0005978310623279
236.85,0.0005978310623279
236.87,0.0005978310623279
236.9,0.0005978310623279
236.92,0.0005978310623279
236.95,0.0005978310623279
236.97,0.0005978310623279
236.99,0.0005978310623279
237.02,0.0005978310623279
237.04,0.0005978310623279
237.07,0.0005978310623279
237.09,0.0005978310623279
237.12,0.0005978310623279
237.14,0.0005978310623279
237.17,0.0005978310623279
237.19,0.0005978310623279
237.21,0.0005978310623279
237.24,0.0005978310623279
237.26,0.0005978310623279
237.29,0.0005978310623279
237.31,0.0005978310623279
237.34,0.0005978310623279
237.36,0.0005978310623279
237.39,0.0005978310623279
237.41,0.0005978310623279
237.43,0.0005978310623279
237.46,0.0005978310623279
237.48,0.0005978310623279
237.51,0.0005978310623279
237.53,0.0005978310623279
237.56,0.0005978310623279
237.58,0.0005978310623279
237.6,0.0005978310623279
237.63,0.0005978310623279
237.65,0.0005978310623278
237.68,0.0005978310623276
237.7,0.0005978310623264
237.73,0.0005978310623075
237.75,0.0005978310622245
237.78,0.0005978310611781
237.8,0.000597831057293
237.82,0.0005978310169404
237.85,0.0005978308912622
237.87,0.0005978298126473
237.9,0.0005978270219562
237.92,0.0005978190024409
237.95,0.000597762235484
237.97,0.0005976518333323
238.0,0.0005970407546784
238.02,0.0005961265137472
238.04,0.0005918583162006
238.07,0.0005874939735684
238.09,0.0005838802300325
238.12,0.0005595681301599
238.14,0.0005634453733729
238.17,0.0005486076234848
238.19,0.0006947715670969
238.21,0.0009480739364479
238.24,0.0016988408030637
238.26,0.0029130065148388
238.29,0.0050145351779035
238.31,0.0079537294345712
238.34,0.0115573136141286
238.36,0.0155115473151131
238.39,0.0194579616865486
238.41,0.0225184816673186
238.43,0.0244584160145287
238.46,0.0245404969011822
238.48,0.0231255191438157
238.51,0.0201265324831149
238.53,0.016399822361181
238.56,0.0123951290447199
238.58,0.008627852897364
238.61,0.0055592891610195
238.63,0.0033955879656504
238.65,0.0019254355772831
238.68,0.0011996867356173
238.7,0.0007602136327559
238.73,0.0006486787780071
238.75,0.0005580417413801
238.78,0.0005445413213763
238.8,0.000574518360784
238.82,0.0005818004709167
238.85,0.0005926432434683
238.87,0.0005951489817863
238.9,0.0005971797534067
238.92,0.0005975385337763
238.95,0.0005977136043311
238.97,0.0005978084974425
239.0,0.0005978233890328
239.02,0.0005978298704097
239.04,0.000597830715857
239.07,0.0005978310187845
239.09,0.0005978310514917
239.12,0.0005978310612517
239.14,0.0005978310620963
239.17,0.0005978310622809
239.19,0.0005978310623243
239.22,0.0005978310623272
239.24,0.0005978310623278
240.58,0.0005978310623279
240.61,0.0005978310623279
240.63,0.0005978310623279
240.65,0.0005978310623279
240.68,0.0005978310623279
240.7,0.0005978310623279
240.73,0.0005978310623279
240.75,0.0005978310623279
240.78,0.0005978310623279
240.8,0.0005978310623279
240.83,0.0005978310623279
240.85,0.0005978310623279
240.87,0.0005978310623279
240.9,0.0005978310623279
240.92,0.0005978310623279
240.95,0.0005978310623279
240.97,0.0005978310623279
241.0,0.0005978310623279
241.02,0.0005978310623279
241.05,0.0005978310623278
241.07,0.0005978310623273
241.09,0.0005978310623197
241.12,0.0005978310622863
241.14,0.0005978310618583
241.17,0.000597831060245
241.19,0.0005978310536246
241.22,0.0005978309860586
241.24,0.0005978307851049
241.27,0.0005978291402611
241.29,0.0005978250785028
241.31,0.0005977973383963
241.34,0.0005977413583489
241.36,0.0005976150199537
241.39,0.0005968617124901
241.41,0.0005957843594875
241.44,0.0005908164758377
241.46,0.0005861274884372
241.48,0.0005667859313312
241.51,0.000562293560235
241.53,0.0005338546736227
241.56,0.0006065766888823
241.58,0.0008400501774493
241.61,0.0011786317395491
241.63,0.002028644375401
241.66,0.0033499778895307
241.68,0.0055688619259661
241.7,0.0085763917329774
241.73,0.012330934371988
241.75,0.0165145201376975
241.78,0.0204155254676003
241.8,0.0235438964335373
241.83,0.0254411858824235
241.85,0.0255917806214831
241.88,0.0242894902947619
241.9,0.0219146794573661
241.92,0.0193080298147281
241.95,0.0175081344081976
241.97,0.0172946134053875
242.0,0.0188256061078698
242.02,0.022094279579989
242.05,0.0266998363510484
242.07,0.0315509900465868
242.09,0.0356150514925131
242.12,0.0377230220259187
242.14,0.0375861063364451
242.17,0.0351752463274284
242.19,0.0316192732791781
242.22,0.027435632164713
242.24,0.0244762528099185
242.27,0.0236997229478239
242.29,0.0262990059346637
242.31,0.0318977302326963
242.34,0.0398416603730428
242.36,0.0486019385337922
242.39,0.0560516438219006
242.41,0.0606763881615507
242.44,0.0618867073061326
242.46,0.0585261746672127
242.49,0.0519615816391408
242.51,0.0426248857241612
242.53,0.0327080491922268
242.56,0.0233268172964418
242.58,0.015710637447741
242.61,0.0103985406338079
242.63,0.0072873277820914
242.66,0.0064887440765651
242.68,0.0080469630954681
242.7,0.0107265281344059
242.73,0.0143524712344643
242.75,0.0180138177706622
242.78,0.021029909832483
242.8,0.0228800210564002
242.83,0.0233866137198488
242.85,0.022144521753926
242.88,0.0197221096689295
242.9,0.01624883095604
242.92,0.0125675101082261
242.95,0.0090200686752956
242.97,0.006040643977982
243.0,0.0038306166649139
243.02,0.0022097165508909
243.05,0.0012370486084022
243.07,0.0008307148323075
243.1,0.0005929593755618
243.12,0.0005712174508327
243.14,0.000549700040094
243.17,0.0005764821075035
243.19,0.0005822969921308
243.22,0.0005929948139063
243.24,0.000594929634125
243.27,0.0005963653788146
243.29,0.0005974634836739
243.31,0.0005976768713738
243.34,0.0005977998292489
243.36,0.0005978200302908
243.39,0.0005978293133544
243.41,0.0005978305200613
243.44,0.0005978308979545
243.46,0.0005978310094983
243.49,0.0005978307950835
243.51,0.0005978301642842
243.53,0.0005978252983693
243.56,0.0005978140830593
243.58,0.0005977419884334
243.61,0.0005976071577638
243.63,0.0005973246630939
243.66,0.000595697120141
243.68,0.0005935940003636
243.71,0.0005842298955757
243.73,0.0005769707378287
243.75,0.0005466903161306
243.78,0.0005500114740338
243.8,0.0006152860428934
243.83,0.0006742237995439
243.85,0.0010377272168132
243.88,0.001637242606346
243.9,0.0030366680223166
243.92,0.0051781833938286
243.95,0.0085267813255502
243.97,0.0129009969030363
244.0,0.0180503222516888
244.02,0.023386986665035
244.05,0.0283441556305198
244.07,0.0317582645469848
244.1,0.0334706364392327
244.12,0.0326515802832904
244.14,0.0299696497439665
244.17,0.02544108704536
244.19,0.0202592311245466
244.22,0.0148961007812549
244.24,0.0101258939817949
244.27,0.0063209104404584
244.29,0.0037394595048294
244.32,0.0020066401086403
244.34,0.0011910199111946
244.36,0.0007044065960989
244.39,0.0006104453527483
244.41,0.000542777996698
244.44,0.0005735403371444
244.46,0.0005710479369533
244.49,0.0005791489860317
244.51,0.0005916445830491
244.53,0.000594534393471
244.56,0.0005969644293401
244.58,0.0005974544634764
244.61,0.0005977545302836
244.63,0.0005978017765587
244.66,0.0005978208081957
244.68,0.000597829399983
244.71,0.0005978305617858
244.73,0.0005978309959495
244.75,0.000597831045056
244.78,0.000597831060455
244.8,0.0005978310619061
244.83,0.0005978310622913
244.85,0.0005978310623207
244.88,0.0005978310623265
244.9,0.0005978310623278
244.93,0.0005978310623279
244.95,0.0005978310623279
244.97,0.0005978310623279
245.0,0.0005978310623279
245.02,0.0005978310623279
245.05,0.0005978310623279
245.07,0.0005978310623279
245.1,0.0005978310623279
245.12,0.0005978310623279
245.15,0.0005978310623279
245.17,0.0005978310623279
245.19,0.0005978310623279
245.22,0.0005978310623279
245.24,0.0005978310623279
245.27,0.0005978310623279
245.29,0.0005978310623279
245.32,0.0005978310623279
245.34,0.0005978310623279
245.36,0.0005978310623279
245.39,0.0005978310623279
245.41,0.0005978310623279
245.44,0.0005978310623279
245.46,0.0005978310623279
245.49,0.0005978310623279
245.51,0.0005978310623279
245.54,0.0005978310623279
245.56,0.0005978310623279
245.58,0.0005978310623279
245.61,0.0005978310623279
245.63,0.0005978310623279
245.66,0.0005978310623279
245.68,0.0005978310623279
245.71,0.0005978310623279
245.73,0.0005978310623279
245.76,0.0005978310623279
245.78,0.0005978310623279
245.8,0.0005978310623279
245.83,0.0005978310623279
245.85,0.0005978310623279
250.76,0.0005978310623279
250.78,0.0005978310623279
250.81,0.0005978310623279
250.83,0.0005978310623279
250.86,0.0005978310623279
250.88,0.0005978310623279
250.9,0.0005978310623279
250.93,0.0005978310623279
250.95,0.0005978310623279
250.98,0.0005978310623279
251.0,0.0005978310623279
251.03,0.0005978310623279
251.05,0.0005978310623279
251.07,0.0005978310623278
251.1,0.0005978310623276
251.12,0.0005978310623247
251.15,0.0005978310623124
251.17,0.0005978310622571
251.2,0.0005978310616193
251.22,0.0005978310594714
251.25,0.0005978310392464
251.27,0.0005978309813811
251.29,0.0005978305209643
251.32,0.0005978294106195
251.34,0.000597821916677
251.37,0.0005978069494981
251.39,0.0005977731897429
251.42,0.0005975691768911
251.44,0.0005972712126474
251.47,0.0005958570137546
251.49,0.0005944116323435
251.51,0.0005882024739667
251.54,0.0005854779774643
251.56,0.0005900141762683
251.59,0.0005809720898132
251.61,0.0006236796777191
251.64,0.0006802659266762
251.66,0.0009231687676105
251.68,0.0012943204432858
251.71,0.0020981887557441
251.73,0.0032218011755361
251.76,0.0050525985829867
251.78,0.0075887149343376
251.81,0.0105465801053195
251.83,0.0143947412108608
251.86,0.0188458004966805
251.88,0.0243040193430938
251.9,0.0305537240760479
251.93,0.0374120015545518
251.95,0.0446562311768175
251.98,0.051059489171598
252.0,0.0560836143173684
252.03,0.0590939540620946
252.05,0.058723618174363
252.08,0.0556464250398973
252.1,0.0493923253521871
252.12,0.041498189324423
252.15,0.0325143614934888
252.17,0.0238543528747286
252.2,0.0163501587135223
252.22,0.0102087378905785
252.25,0.0058320194950795
252.27,0.0032811105298942
252.29,0.0016390337447887
252.32,0.0010229179917628
252.34,0.0006348514662368
252.37,0.0005989710753746
252.39,0.0005323643499998
252.42,0.0005239554573671
252.44,0.0005566581048555
252.47,0.0005442962568146
252.49,0.000580390860539
252.51,0.0006100468884912
252.54,0.000832877650822
252.56,0.0011896964038449
252.59,0.0020467477936533
252.61,0.0034822518610462
252.64,0.00537077630736
252.66,0.0080752891389484
252.69,0.0112794411171125
252.71,0.015201136338971
252.73,0.0193510410691007
252.76,0.0241592559907797
252.78,0.0297014850233257
252.81,0.0355637287000154
252.83,0.043030460319593
252.86,0.0517582276755943
252.88,0.0616677766213812
252.9,0.0724784033075259
252.93,0.082031269058617
252.95,0.0897192112045438
252.98,0.0927438889126124
253.0,0.0910406627433055
253.03,0.0846919628075673
253.05,0.0735643722479716
253.08,0.0602892697404398
253.1,0.0459384971144772
253.12,0.0327404031755009
253.15,0.0217938063411233
253.17,0.0132954577319192
253.2,0.0077400000173399
253.22,0.0037786167726399
253.25,0.0016195301216255
253.27,0.0009100952268211
253.3,0.0004712689519202
253.32,0.0005012521463665
