Wavelength (nm),Normalized
245.7,0.0005771911951647
245.72,0.0005771895265593
245.75,0.0005771884060929
245.78,0.0005771878337654
245.8,0.0005771878095768
245.82,0.0005771883335272
245.85,0.0005771858114835
245.88,0.0005771653159762
245.9,0.0005770521754171
245.93,0.0005768239001601
245.95,0.0005762999756954
245.97,0.0005731153205231
246.0,0.0005683487524862
246.03,0.0005457084395776
246.05,0.0004798573949861
246.07,0.0004328753011221
246.1,0.0004307535246632
246.12,0.0002488074476838
246.15,0.0
246.18,0.0009671615655506
246.2,0.0037110418179704
246.22,0.0078268419842924
246.25,0.0154804727230031
246.28,0.0300145528341212
246.3,0.0507103877642915
246.32,0.0781437333372088
246.35,0.1094519637570495
246.38,0.141628610830965
246.4,0.1702258246986845
246.43,0.1892177311148187
246.45,0.1951904411666457
246.47,0.1875455994977155
246.5,0.1676000835956547
246.53,0.1406861959809788
246.55,0.109084151807182
246.57,0.078394311424349
246.6,0.0516231430253283
246.62,0.0316332724059437
246.65,0.0178489437425003
246.68,0.0080755611835458
246.7,0.0027153634685
246.72,0.0009673619536648
246.75,1.0450337230607706e-06
246.78,0.0002503274169348
246.8,0.0004325439311202
246.82,0.0004347316464634
246.85,0.0004815751808897
246.88,0.0005470831677217
246.9,0.0005691759291285
246.93,0.0005731904370377
246.95,0.0005754185349363
246.97,0.0005768075517821
247.0,0.0005771175233471
247.03,0.0005771653048389
247.05,0.0005771858010224
247.07,0.0005771883249875
247.1,0.0005771890917927
247.12,0.0005771893524094
247.15,0.0005771893841163
247.18,0.0005771893869157
247.2,0.0005771893875412
264.57,0.0005771893876927
264.6,0.0005771893877034
264.62,0.0005771893877057
264.65,0.0005771893877058
264.68,0.0005771893877058
264.7,0.0005771893877058
264.73,0.0005771893877058
264.75,0.0005771893877058
264.77,0.0005771893877058
264.8,0.0005771893877058
264.82,0.0005771893877058
264.85,0.0005771893877058
264.88,0.0005771893877058
264.9,0.0005771893877058
264.93,0.0005771893877058
264.95,0.0005771893877058
264.98,0.0005771893877058
265.0,0.0005771893877058
265.02,0.0005771893877058
265.05,0.0005771893877058
265.07,0.0005771893877058
265.1,0.0005771893877058
265.12,0.0005771893877058
265.15,0.0005771893877058
265.18,0.0005771893877058
265.2,0.0005771893877058
265.23,0.0005771893877058
265.25,0.0005771893877058
265.27,0.0005771893877058
265.3,0.0005771893877058
265.32,0.0005771893877058
265.35,0.0005771893877058
265.38,0.0005771893877058
265.4,0.0005771893877058
265.43,0.0005771893877058
265.45,0.0005771893877058
265.48,0.0005771893877058
265.5,0.0005771893877058
265.52,0.0005771893877058
265.55,0.0005771893877058
265.57,0.0005771893877058
265.6,0.0005771893877058
265.62,0.0005771893877058
265.65,0.0005771893877058
265.68,0.0005771893877058
265.7,0.0005771893877058
265.73,0.0005771893877058
265.75,0.0005771893877058
265.77,0.0005771893877058
265.8,0.0005771893877058
265.82,0.0005771893877058
265.85,0.0005771893877058
265.88,0.0005771893877058
265.9,0.0005771893877058
265.93,0.0005771893877058
265.95,0.0005771893877058
265.98,0.0005771893877058
266.0,0.0005771893877058
266.02,0.0005771893877058
266.05,0.0005771893877058
266.07,0.0005771893877058
266.1,0.0005771893877058
266.12,0.0005771893877058
266.15,0.0005771893877058
266.18,0.0005771893877051
266.38,0.0005771893877025
266.4,0.0005771893876907
266.43,0.0005771893875566
266.45,0.000577189387106
266.48,0.0005771893828201
266.5,0.0005771893703502
266.52,0.0005771892681931
266.55,0.0005771886557259
266.57,0.0005771872902109
266.6,0.0005771784847122
266.62,0.0005771616080563
266.65,0.0005771246877729
266.68,0.0005769011351121
266.7,0.0005765793384788
266.73,0.0005750259082687
266.75,0.0005704120199745
266.77,0.0005669285286855
266.8,0.0005524138332101
266.82,0.0005519839499575
266.85,0.0005320427393224
266.88,0.000594166304679
266.9,0.0007837074841967
266.93,0.0010301599906733
266.95,0.0017054477727788
266.98,0.0027278738872497
267.0,0.0046416655148932
267.02,0.0073338234428598
267.05,0.0110724191738714
267.07,0.0158733519825671
267.1,0.0212976240139976
267.12,0.0266738334663994
267.15,0.0312271814105389
267.18,0.0344501336212529
267.2,0.0356830719936356
267.23,0.0347585231216724
267.25,0.0319723062928064
267.27,0.027336444380803
267.3,0.0220076696164103
267.32,0.0166370781362885
267.35,0.0117553192299301
267.38,0.0076311457444306
267.4,0.0045512351631487
267.43,0.002634866910351
267.45,0.0013904146070518
267.48,0.0009103332891585
267.5,0.0006974735181554
267.52,0.0005578121767917
267.55,0.0005617121745943
267.57,0.0005499032104108
267.6,0.0005672661076126
267.62,0.0005679971682751
267.65,0.000571131705848
267.68,0.000575246627206
267.7,0.0005761510311894
267.73,0.0005769048446524
267.75,0.0005770586124464
267.77,0.0005771596465804
267.8,0.0005771833863635
267.82,0.0005771872371369
267.85,0.0005771890359413
267.88,0.0005771892739837
267.9,0.0005771893532227
267.93,0.0005771893829889
267.95,0.0005771893864256
267.98,0.0005771893875558
268.0,0.0005771893876902
274.23,0.0005771893877023
274.25,0.0005771893877055
274.27,0.0005771893877058
274.3,0.0005771893877058
274.32,0.0005771893877058
274.35,0.0005771893877058
274.38,0.0005771893877058
274.4,0.0005771893877058
274.43,0.0005771893877058
274.45,0.0005771893877058
274.48,0.0005771893877058
274.5,0.0005771893877058
274.52,0.0005771893877058
274.55,0.0005771893877058
274.57,0.0005771893877058
274.6,0.0005771893877058
274.62,0.0005771893877058
274.65,0.0005771893877058
274.68,0.0005771893877058
274.7,0.0005771893877058
274.73,0.0005771893877058
274.75,0.0005771893877058
274.77,0.0005771893877058
274.8,0.0005771893877058
274.82,0.0005771893877058
274.85,0.0005771893877058
274.88,0.0005771893877058
274.9,0.0005771893877058
274.93,0.0005771893877058
274.95,0.0005771893877058
274.98,0.0005771893877058
275.0,0.0005771893877058
275.02,0.0005771893877058
275.05,0.0005771893877058
275.07,0.0005771893877058
275.1,0.0005771893877058
275.12,0.0005771893877058
275.15,0.0005771893877058
275.18,0.0005771893877058
275.2,0.0005771893877058
275.23,0.0005771893877058
275.25,0.0005771893877058
275.27,0.0005771893877058
275.3,0.0005771893877058
275.32,0.0005771893877058
275.35,0.0005771893877058
275.38,0.0005771893877058
275.4,0.0005771893877058
275.43,0.0005771893877058
275.45,0.0005771893877058
275.48,0.0005771893877058
275.5,0.0005771893877058
275.52,0.0005771893877058
275.55,0.0005771893877058
275.57,0.0005771893877058
275.6,0.0005771893877058
275.62,0.0005771893877058
275.65,0.0005771893877058
275.68,0.0005771893877058
275.7,0.0005771893877058
275.73,0.0005771893877058
275.75,0.0005771893877058
275.77,0.0005771893877058
275.8,0.0005771893877058
275.82,0.0005771893877058
275.85,0.0005771893877058
275.88,0.0005771893877058
288.27,0.0005771893877058
288.3,0.0005771893877058
288.32,0.0005771893877058
288.35,0.0005771893877058
288.38,0.0005771893877058
288.4,0.0005771893877058
288.43,0.0005771893877058
288.45,0.0005771893877058
288.48,0.0005771893877058
288.5,0.0005771893877058
288.52,0.0005771893877058
288.55,0.0005771893877058
288.57,0.0005771893877058
288.6,0.0005771893877058
288.62,0.0005771893877058
288.65,0.0005771893877058
288.68,0.0005771893877058
288.7,0.0005771893877058
288.73,0.0005771893877058
288.75,0.0005771893877058
288.77,0.0005771893877058
288.8,0.0005771893877058
288.82,0.0005771893877058
288.85,0.0005771893877058
288.88,0.0005771893877058
288.9,0.0005771893877058
288.93,0.0005771893877058
288.95,0.0005771893877058
288.98,0.0005771893877058
289.0,0.0005771893877058
289.02,0.0005771893877058
289.05,0.0005771893877058
289.07,0.0005771893877058
289.1,0.0005771893877058
289.12,0.0005771893877058
289.15,0.0005771893877058
289.18,0.0005771893877058
289.2,0.0005771893877058
289.23,0.0005771893877058
289.25,0.0005771893877058
289.27,0.0005771893877058
289.3,0.0005771893877058
289.32,0.0005771893877058
289.35,0.0005771893877058
289.38,0.0005771893877058
289.4,0.0005771893877058
289.43,0.0005771893877058
289.45,0.0005771893877058
289.48,0.0005771893877058
289.5,0.0005771893877058
289.52,0.0005771893877058
289.55,0.0005771893877058
289.57,0.0005771893877058
289.6,0.0005771893877058
289.62,0.0005771893877058
289.65,0.0005771893877058
289.68,0.0005771893877058
289.7,0.0005771893877058
289.73,0.0005771893877058
289.75,0.0005771893877058
289.77,0.0005771893877058
289.8,0.0005771893877058
289.82,0.0005771893877058
289.85,0.0005771893877058
289.88,0.0005771893877058
289.9,0.0005771893877058
289.93,0.0005771893877058
289.95,0.0005771893877058
289.98,0.0005771893877058
290.0,0.0005771893877058
290.02,0.0005771893877058
296.15,0.0005771893877058
296.18,0.0005771893877058
296.2,0.0005771893877058
296.23,0.0005771893877058
296.25,0.0005771893877058
296.27,0.0005771893877058
296.3,0.0005771893877058
296.32,0.0005771893877058
296.35,0.0005771893877058
296.38,0.0005771893877058
296.4,0.0005771893877058
296.43,0.0005771893877058
296.45,0.0005771893877058
296.48,0.0005771893877058
296.5,0.0005771893877058
296.52,0.0005771893877058
296.55,0.0005771893877058
296.57,0.0005771893877058
296.6,0.0005771893877058
296.62,0.0005771893877058
296.65,0.0005771893877058
296.68,0.0005771893877058
296.7,0.0005771893877058
296.73,0.0005771893877058
296.75,0.0005771893877058
296.77,0.0005771893877058
296.8,0.0005771893877058
296.82,0.0005771893877058
296.85,0.0005771893877058
296.88,0.0005771893877058
296.9,0.0005771893877058
296.93,0.0005771893877058
296.95,0.0005771893877058
296.98,0.0005771893877058
297.0,0.0005771893877058
297.02,0.0005771893877058
297.05,0.0005771893877059
297.07,0.0005771893877059
297.1,0.0005771893877059
297.12,0.0005771893877059
297.15,0.0005771893877059
297.18,0.0005771893877059
297.2,0.0005771893877059
297.23,0.0005771893877059
297.25,0.0005771893877059
297.27,0.0005771893877059
297.3,0.0005771893877059
297.32,0.0005771893877059
297.35,0.0005771893877059
297.38,0.0005771893877059
297.4,0.0005771893877059
297.43,0.0005771893877059
297.45,0.0005771893877059
297.48,0.0005771893877059
297.5,0.0005771893877059
297.52,0.0005771893877059
297.55,0.0005771893877059
297.57,0.0005771893877059
297.6,0.0005771893877059
297.62,0.0005771893877059
297.65,0.0005771893877059
297.68,0.0005771893877059
297.7,0.0005771893877059
297.73,0.0005771893877059
297.75,0.0005771893877059
297.77,0.0005771893877059
297.8,0.0005771893877059
297.82,0.0005771893877059
297.85,0.0005771893877059
297.88,0.0005771893877059
297.9,0.0005771893877059
297.93,0.0005771893877059
297.95,0.0005771893877059
327.95,0.0005771893877059
327.98,0.0005771893877059
328.0,0.0005771893877059
328.02,0.0005771893877059
328.05,0.0005771893877059
328.08,0.0005771893877059
328.1,0.0005771893877059
328.12,0.0005771893877059
328.15,0.0005771893877059
328.18,0.0005771893877059
328.2,0.0005771893877059
328.23,0.0005771893877059
328.25,0.0005771893877059
328.27,0.0005771893877059
328.3,0.0005771893877059
328.33,0.0005771893877059
328.35,0.0005771893877059
328.38,0.0005771893877059
328.4,0.0005771893877059
328.43,0.0005771893877059
328.45,0.0005771893877059
328.48,0.0005771893877059
328.5,0.0005771893877059
328.52,0.0005771893877059
328.55,0.0005771893877059
328.58,0.0005771893877059
328.6,0.0005771893877059
328.62,0.0005771893877059
328.65,0.0005771893877059
328.68,0.0005771893877059
328.7,0.0005771893877059
328.73,0.0005771893877059
328.75,0.0005771893877059
328.77,0.0005771893877059
328.8,0.0005771893877059
328.83,0.0005771893877059
328.85,0.0005771893877059
328.88,0.0005771893877059
328.9,0.0005771893877059
328.93,0.0005771893877059
328.95,0.0005771893877059
328.98,0.0005771893877059
329.0,0.0005771893877059
329.02,0.0005771893877059
329.05,0.0005771893877059
329.08,0.0005771893877059
329.1,0.0005771893877059
329.12,0.0005771893877059
329.15,0.0005771893877059
329.18,0.0005771893877059
329.2,0.0005771893877059
329.23,0.0005771893877059
329.25,0.0005771893877059
329.27,0.0005771893877059
329.3,0.0005771893877059
329.33,0.0005771893877059
329.35,0.0005771893877059
329.38,0.0005771893877059
329.4,0.0005771893877059
329.43,0.0005771893877059
329.45,0.0005771893877059
329.48,0.0005771893877059
329.5,0.0005771893877059
329.52,0.0005771893877059
329.55,0.0005771893877059
329.58,0.0005771893877059
329.6,0.0005771893877059
329.62,0.0005771893877059
329.65,0.0005771893877059
329.68,0.0005771893877059
329.7,0.0005771893877059
329.73,0.0005771893877059
329.75,0.0005771893877059
329.77,0.0005771893877059
329.8,0.0005771893877059
329.83,0.0005771893877059
329.85,0.0005771893877058
329.88,0.0005771893877057
329.9,0.0005771893877048
329.93,0.0005771893877024
345.4,0.0005771893876947
345.43,0.0005771893876314
345.45,0.0005771893872628
345.48,0.0005771893864436
345.5,0.0005771893842757
345.52,0.0005771893687967
345.55,0.0005771892945419
345.58,0.0005771891609991
345.6,0.0005771883932745
345.62,0.0005771871353887
345.65,0.0005771846840281
345.68,0.0005771693004422
345.7,0.0005771138977112
345.73,0.000577049223028
345.75,0.0005767367937552
345.77,0.0005764418700775
345.8,0.0005749313375762
345.83,0.0005740000540567
345.85,0.000568344761405
345.88,0.0005677122927088
345.9,0.00057558493262
345.93,0.000562453623216
345.95,0.0005297754944559
345.98,0.0006309567057048
346.0,0.0009255196926854
346.02,0.0012354147931526
346.05,0.001779441486705
346.08,0.0036033446490773
346.1,0.0062410010169185
346.12,0.011638400138885
346.15,0.0201402172134898
346.18,0.0308537845352871
346.2,0.0454486403662346
346.23,0.066632753921578
346.25,0.0924557180675605
346.27,0.1237309284422388
346.3,0.1581991918486874
346.33,0.1945632730479504
346.35,0.2293703497532325
346.38,0.2597261954877208
346.4,0.2815359074342107
346.43,0.2931886559672434
346.45,0.2942730072345416
346.48,0.2836810640555741
346.5,0.2616166844685931
346.52,0.2337290287615737
346.55,0.2004978758980981
346.58,0.1648174523549792
346.6,0.1301405804190123
346.62,0.0975726580992359
346.65,0.0698637737057207
346.68,0.04896579463193
346.7,0.0328691742587041
346.73,0.0199590140615435
346.75,0.0114386452858284
346.77,0.0070435874284564
346.8,0.004323045315174
346.83,0.0023199577531004
346.85,0.0015004480055867
346.88,0.0008187711968982
346.9,0.0005409407289863
346.93,0.0005570119073806
346.95,0.0005681523621094
346.98,0.0005535273863049
347.0,0.000567965889382
347.02,0.0005686201269979
347.05,0.0005742651626161
347.08,0.0005751541631488
347.1,0.0005765903867101
347.12,0.0005767789721552
347.15,0.0005769530436173
347.18,0.0005771228770564
347.2,0.0005771726853788
347.23,0.0005771807265655
347.25,0.0005771852896462
347.27,0.0005771884038949
347.3,0.0005771891700782
347.33,0.0005771893008327
347.35,0.000577189371052
347.38,0.0005771893812484
347.4,0.0005771893853278
347.43,0.0005771893872772
347.45,0.0005771893876343
347.48,0.0005771893876829
368.3,0.0005771893877024
368.33,0.0005771893877048
368.35,0.0005771893877057
368.38,0.0005771893877058
368.4,0.0005771893877059
368.43,0.0005771893877059
368.45,0.0005771893877059
368.48,0.0005771893877059
368.5,0.0005771893877059
368.52,0.0005771893877059
368.55,0.0005771893877059
368.58,0.0005771893877059
368.6,0.0005771893877059
368.62,0.0005771893877059
368.65,0.0005771893877059
368.68,0.0005771893877059
368.7,0.0005771893877059
368.73,0.0005771893877059
368.75,0.0005771893877059
368.77,0.0005771893877059
368.8,0.0005771893877059
368.83,0.0005771893877059
368.85,0.0005771893877059
368.88,0.0005771893877059
368.9,0.0005771893877059
368.93,0.0005771893877059
368.95,0.0005771893877059
368.98,0.0005771893877059
369.0,0.0005771893877059
369.02,0.0005771893877059
369.05,0.0005771893877059
369.08,0.0005771893877059
369.1,0.0005771893877059
369.12,0.0005771893877059
369.15,0.0005771893877059
369.18,0.0005771893877059
369.2,0.0005771893877059
369.23,0.0005771893877059
369.25,0.0005771893877059
369.27,0.0005771893877059
369.3,0.0005771893877059
369.33,0.0005771893877059
369.35,0.0005771893877059
369.38,0.0005771893877059
369.4,0.0005771893877059
369.43,0.0005771893877059
369.45,0.0005771893877059
369.48,0.0005771893877059
369.5,0.0005771893877059
369.52,0.0005771893877059
369.55,0.0005771893877059
369.58,0.0005771893877059
369.6,0.0005771893877059
369.62,0.0005771893877059
369.65,0.0005771893877059
369.68,0.0005771893877059
369.7,0.0005771893877059
369.73,0.000577189387706
369.75,0.000577189387706
369.77,0.000577189387706
369.8,0.000577189387706
369.83,0.000577189387706
369.85,0.000577189387706
369.88,0.000577189387706
369.9,0.000577189387706
369.93,0.000577189387706
369.95,0.000577189387706
369.98,0.000577189387706
370.0,0.000577189387706
370.02,0.000577189387706
370.05,0.000577189387706
370.08,0.000577189387706
370.1,0.000577189387706
370.12,0.000577189387706
370.15,0.000577189387706
370.18,0.000577189387706
370.2,0.000577189387706
370.23,0.000577189387706
370.25,0.000577189387706
370.27,0.000577189387706
370.3,0.000577189387706
370.33,0.000577189387706
370.35,0.000577189387706
370.38,0.000577189387706
370.4,0.000577189387706
370.43,0.000577189387706
370.45,0.000577189387706
370.48,0.0005771893877057
370.5,0.0005771893877044
370.52,0.0005771893877017
397.6,0.0005771893876835
397.62,0.000577189387646
397.65,0.0005771893875532
397.68,0.0005771893869102
397.7,0.0005771893839779
397.73,0.0005771893789856
397.75,0.0005771893506305
397.77,0.0005771893054568
397.8,0.0005771890551407
397.83,0.0005771886959408
397.85,0.0005771867700507
397.88,0.0005771843269676
397.9,0.0005771806598908
397.93,0.0005771553558759
397.95,0.0005770732105428
397.98,0.000577003199145
398.0,0.0005769492312047
398.02,0.0005763531191545
398.05,0.0005746308359072
398.08,0.0005741084163605
398.1,0.000569470573948
398.12,0.00057145528409
398.15,0.0005838319486273
398.18,0.0005781174180682
398.2,0.0005558573789648
398.23,0.0006632910918085
398.25,0.0007607008240127
398.27,0.0012784034550769
398.3,0.0019001877387487
398.33,0.0037156547308787
398.35,0.0060820400781669
398.38,0.0113523096510123
398.4,0.0200939143816607
398.43,0.0308553521974049
398.45,0.0461255254741779
398.48,0.0723471322583459
398.5,0.1097147898499327
398.52,0.1548777929354887
398.55,0.2114835728401088
398.58,0.2866657357552346
398.6,0.3730589547871804
398.62,0.474477523299484
398.65,0.5824004231449287
398.68,0.6877987466970049
398.7,0.7888958102221321
398.73,0.8790836803689451
398.75,0.9498102335995884
398.77,0.9877486895674188
398.8,1.0
398.83,0.9821769829413934
398.85,0.9360676819955988
398.88,0.8652558264652619
398.9,0.7739577871638339
398.93,0.673528890562461
398.95,0.5705770700125076
398.98,0.4668790092475547
399.0,0.3714636158941118
399.02,0.285766034018025
399.05,0.2155478453158011
399.08,0.1547614265537752
399.1,0.1093392118795604
399.12,0.0714066589134859
399.15,0.0448031539401304
399.18,0.0293340796594702
399.2,0.018556738025139
399.23,0.0099822266612038
399.25,0.0050680630015734
399.27,0.0032272461900967
399.3,0.0021234620675214
399.33,0.001218181374023
399.35,0.0009382217255984
399.38,0.0006456478705172
399.4,0.000538447035017
399.43,0.0005630126114579
399.45,0.0005731053393481
399.48,0.0005671795321358
399.5,0.0005737183393124
399.52,0.0005737468626665
399.55,0.0005760772136704
399.58,0.0005763530784077
399.6,0.0005769490499325
399.62,0.0005770028822691
399.65,0.0005770728083191
399.68,0.0005771549185606
399.7,0.0005771802377399
399.73,0.0005771839702371
399.75,0.0005771865290077
399.77,0.0005771886208166
399.8,0.0005771891961952
399.83,0.0005771893009518
399.85,0.0005771893685384
399.88,0.0005771893789569
399.9,0.0005771893839505
399.93,0.0005771893868872
399.95,0.000577189387538
399.98,0.0005771893876418
400.0,0.0005771893876936
553.98,0.0005771893877014
554.0,0.000577189387705
554.03,0.0005771893877055
554.05,0.0005771893877056
554.08,0.0005771893877053
554.1,0.000577189387704
554.12,0.0005771893877028
554.15,0.0005771893876964
554.17,0.0005771893876911
554.2,0.0005771893876581
554.23,0.0005771893876353
554.25,0.0005771893874772
554.28,0.0005771893873938
554.3,0.0005771893874201
554.33,0.0005771893862977
554.35,0.0005771893828058
554.38,0.0005771893821978
554.4,0.0005771893719021
554.42,0.0005771893754178
554.45,0.0005771893441879
554.48,0.0005771893762341
554.5,0.0005771895019014
554.53,0.0005771894344162
554.55,0.0005771898159833
554.58,0.0005771897034665
