Wavelength (nm),Normalized
200.0,0.0053476166578477
200.03,0.0071149533625101
200.05,0.008695192833851
200.07,0.0100883350718705
200.1,0.0112943800765684
200.12,0.0123133278479448
200.15,0.0137978067362124
200.18,0.0146819318285998
200.2,0.0148001068043501
200.22,0.0141359112739619
200.25,0.012874475422925
200.28,0.0111795918971111
200.3,0.0094487320523263
200.32,0.0079467454994313
200.35,0.0067448440645597
200.38,0.0052549555600237
200.4,0.0028697175844346
200.43,0.0025409553502296
200.45,0.0061287637447381
200.47,0.0123282961899656
200.5,0.0347003433502975
200.53,0.0743225216305522
200.55,0.1418744904916851
200.57,0.2363974117639276
200.6,0.3448111074761585
200.62,0.4538279498166206
200.65,0.5393134073785054
200.68,0.5785038543388454
200.7,0.5642302698566033
200.72,0.4997635868823215
200.75,0.4034722107396588
200.78,0.2887313906583698
200.8,0.1839290586210665
200.82,0.1015776317057979
200.85,0.0463836399085614
200.88,0.0200523315480177
200.9,0.0091725529970945
200.93,0.0029015372355758
200.95,0.0021023000923666
200.97,0.0043897793821069
201.0,0.0055174692475963
201.03,0.0057757173238738
201.05,0.0060058151617218
201.07,0.0060426184388684
201.1,0.0060723302973235
201.12,0.0061037442389812
201.15,0.0061483240683767
201.18,0.0062342207750796
201.2,0.0063616775171862
201.22,0.0065234771304774
201.25,0.0067003235564444
201.28,0.0068486752242393
201.3,0.0069478640571434
201.32,0.0069697968751984
201.35,0.006909372968454
201.38,0.006776163832042
201.4,0.0066050486510951
201.43,0.0064409402916991
201.45,0.0063084830933568
201.47,0.0062274193621464
201.5,0.0062202072446488
201.53,0.0062715155043389
201.55,0.0063870049199169
201.57,0.0065294734058515
201.6,0.006676274326372
201.62,0.0068031623850918
201.65,0.0068741940315216
201.68,0.0068718358275435
201.7,0.00679795919148
201.72,0.0066676285173772
201.75,0.0065166586666666
201.78,0.0063655698964129
201.8,0.0062446401814369
201.82,0.00615821714015
201.85,0.0061080897802087
201.88,0.0060911952062608
201.9,0.0060867094229337
201.93,0.0060837076425718
201.95,0.006084388590432
201.97,0.0060868330606656
202.0,0.0060878485096588
202.03,0.0060880859731337
202.05,0.0060882453208935
202.07,0.0060882717820393
202.1,0.0060882823210822
202.12,0.0060882868397375
202.15,0.0060882873728406
202.18,0.0060882869221661
202.2,0.0060882850060398
202.22,0.0060882681079716
202.25,0.0060881704294318
202.28,0.0060879724674725
202.3,0.0060868969919206
202.32,0.0060853356379043
202.35,0.006083090104899
202.38,0.0060725159499353
202.4,0.0060513705872718
202.43,0.0060586352761132
202.45,0.0061161451343998
202.47,0.0062167763418855
202.5,0.0064890755295354
202.53,0.0069415199851785
202.55,0.0076456995794766
202.57,0.0085451611663691
202.6,0.0095023808172585
202.62,0.0103886982994727
202.65,0.0109943236896494
202.68,0.011159416277155
202.7,0.01085508815715
202.72,0.0101406803272539
202.75,0.0092171832937076
202.78,0.0082318787066211
202.8,0.0074085062855597
202.82,0.0068531640837268
202.85,0.006598347825195
202.88,0.0066384446164379
202.9,0.0068405491571668
202.93,0.0070726725378728
202.95,0.0072976845007852
202.97,0.0074625714637203
203.0,0.0074916326002185
203.03,0.0074009254991689
203.05,0.0071994126220158
203.07,0.0069464005078319
203.1,0.0066805858229309
203.12,0.0064463232988337
203.15,0.0062753398021152
203.18,0.0061583117467004
203.2,0.0060939430640208
203.22,0.0060625984384997
203.25,0.0060213315824207
203.28,0.0060201261670591
203.3,0.0060079794589132
203.32,0.0061602458382653
203.35,0.0065591870576533
203.38,0.0072127562341684
203.4,0.0083422845476298
203.43,0.0100321210230559
203.45,0.0120922545814283
203.47,0.0142891438305909
203.5,0.0161895495840584
203.53,0.0175718649842485
203.55,0.018144136003459
203.57,0.0179303568695369
203.6,0.0170072856384688
203.62,0.0156138036034994
203.65,0.0141323865495894
203.68,0.0127065144196075
203.7,0.0113990336875836
203.72,0.0102945551085688
203.75,0.0092763659885757
203.78,0.008405049053509
203.8,0.0076245283985863
203.82,0.0069600769172488
203.85,0.006497856346553
203.88,0.0062566120561181
203.9,0.0061381596390219
203.93,0.0060675795522705
203.95,0.00605217503758
203.97,0.006070617230201
204.0,0.0060814653816273
204.03,0.0060842886896054
204.05,0.0060866537280184
204.07,0.0060868656668594
204.1,0.0060871650158602
204.12,0.0060867622846467
204.15,0.0060874589158099
204.18,0.0060958106699793
204.2,0.0061140829794768
204.22,0.0061427025029391
204.25,0.0061857899664765
204.28,0.0062398324667821
204.3,0.0062989579717296
204.32,0.0063491685436155
204.35,0.006380863787197
204.38,0.0063885302504921
204.4,0.0063696990772139
204.43,0.0063297527111419
204.45,0.0062753838189183
204.47,0.0062167523716002
204.5,0.006166626684166
204.53,0.006129279541767
204.55,0.0061063073174226
204.57,0.0060921511254254
204.6,0.0060863678024102
204.62,0.0060866962231292
204.65,0.0060874945701761
204.68,0.0060875886576602
204.7,0.006087855802309
204.72,0.0060881573848423
204.75,0.0060882276141364
204.78,0.0060882746888077
204.8,0.0060882853859747
204.82,0.0060882869083127
204.85,0.0060882874178167
204.88,0.0060882876022023
204.9,0.0060882876252743
204.93,0.0060882876272765
204.95,0.0060882876277011
204.97,0.0060882876277869
205.0,0.0060882876277438
205.03,0.0060882876269569
205.05,0.0060882876177739
205.07,0.0060882875827775
205.1,0.0060882874408784
205.12,0.0060882860661089
205.15,0.0060882770623992
205.18,0.0060882563365999
205.2,0.0060882044370962
205.22,0.0060878904812979
205.25,0.0060867653488126
205.28,0.006085524665811
205.3,0.0060810397954425
205.32,0.0060796759212944
205.35,0.0060851539528968
205.38,0.0060916116343335
205.4,0.006121420619132
205.43,0.0062248218125767
205.45,0.0064123752202521
205.47,0.0066822400679057
205.5,0.0070291430838516
205.53,0.007421434108869
205.55,0.0077876414693365
205.57,0.0080352701632588
205.6,0.0081168824613884
205.62,0.0080155471051427
205.65,0.0077593346651667
205.68,0.0074287147678901
205.7,0.007078523918344
205.72,0.0067414160494601
205.75,0.0064230359782143
205.78,0.0062575833129791
205.8,0.0059097425926563
205.82,0.0061082435393145
205.85,0.0072836264465319
205.88,0.0091444020544713
205.9,0.0138018901209476
205.93,0.0244583412342638
205.95,0.0411313442760578
205.97,0.0630928004818475
206.0,0.0877627895372764
206.03,0.1123931202794278
206.05,0.1314553254380737
206.07,0.1399977681818965
206.1,0.1363629079093607
206.12,0.1212616422793271
206.15,0.0986700087340759
206.18,0.0737806792920722
206.2,0.0498624391129679
206.22,0.0304699399579056
206.25,0.0171681819355105
206.28,0.01038444792693
206.3,0.0073052339317762
206.32,0.0055049389707568
206.35,0.0051515282529158
206.38,0.0056612843114182
206.4,0.0059358444552671
206.43,0.005992275016569
206.45,0.0060389452144231
206.47,0.0060760638849837
206.5,0.0060857413152304
206.53,0.0060873861914651
206.55,0.0060881406286257
206.57,0.0060882234703557
206.6,0.0060882077337911
206.62,0.0060878886231506
206.65,0.0060864091278378
206.68,0.0060841349950369
206.7,0.0060804977020254
206.72,0.0060628842237974
206.75,0.0060224544926877
206.78,0.0060191102086089
206.8,0.0060134079930177
206.82,0.0062134794805216
206.85,0.0067092632320571
206.88,0.0075116962439816
206.9,0.0088689156441968
206.93,0.0108466460479295
206.95,0.013210238845131
206.97,0.01570263999042
207.0,0.0177355806382719
207.03,0.0190592028990782
207.05,0.0192475465553098
207.07,0.0183009618259839
207.1,0.0163861797226952
207.12,0.0138646826067912
207.15,0.0113483110823495
207.18,0.0092229497014683
207.2,0.007662954016037
207.22,0.0067770257182268
207.25,0.0063699411790198
207.28,0.006455888493779
207.3,0.006720331550124
207.32,0.007017180663206
207.35,0.0073355654290768
207.38,0.0076129201122752
207.4,0.0077507383375183
207.43,0.0077242611225633
207.45,0.0075372249193655
207.47,0.0071154081777701
207.5,0.006699650788529
207.53,0.0060775021965657
207.55,0.0055637313676558
207.57,0.0069001272333436
207.6,0.0108268819118455
207.62,0.0174256119264535
207.65,0.0286733754575612
207.68,0.0450696364647059
207.7,0.0646818033155906
207.72,0.085391773927812
207.75,0.103162886820486
207.78,0.1128001348687238
207.8,0.1135692740440533
207.82,0.1052636798208951
207.85,0.0892588725993637
207.88,0.0685271320725713
207.9,0.0481591169989022
207.93,0.031350773085423
207.95,0.0194941505065097
207.97,0.0134816364249054
208.0,0.011421902613843
208.03,0.0110898611841477
208.05,0.0123002387642703
208.07,0.013030548697079
208.1,0.0134417321132833
208.12,0.0133456603704718
208.15,0.0125781591497687
208.18,0.0114118532997891
208.2,0.0100709872122746
208.22,0.0087772338451262
208.25,0.0077128058152991
208.28,0.0069534861521348
208.3,0.006316055851939
208.32,0.0057565051536174
208.35,0.0052566987211941
208.38,0.0035189671192166
208.4,0.0
208.43,0.001029136187166
208.45,0.0101601588423592
208.47,0.0254452929774416
208.5,0.0698205768150791
208.53,0.1442334465487149
208.55,0.2646020045604481
208.57,0.4277771570302185
208.6,0.6114345635758948
208.62,0.793432467166829
208.65,0.9352043177129558
208.68,1.0
208.7,0.9758459671213704
208.72,0.8684140301460415
208.75,0.707569092300758
208.78,0.5142398477106049
208.8,0.3350189227224543
208.82,0.190920735312005
208.85,0.0911401064436781
208.88,0.0399387870225808
208.9,0.0165083864423068
208.93,0.002821563877944
208.95,8.631861264231338e-05
208.97,0.0038900830386373
209.0,0.005906191108922
209.03,0.0062581698124674
209.05,0.0065482482811879
209.07,0.006417040843634
209.1,0.0062833905824272
209.12,0.0061938725650782
209.15,0.0061334949079942
209.18,0.0060939630459405
209.2,0.0060794593677236
209.22,0.0060817960380206
209.25,0.0060826492938887
209.28,0.0060861542815886
209.3,0.0060873530908619
209.32,0.0060872304845358
209.35,0.0060867018581297
209.38,0.0060833177056617
209.4,0.0060748963959768
209.43,0.006073045447721
209.45,0.0060844308778879
209.47,0.0061000101118041
209.5,0.0061810151916573
209.53,0.006327945113428
209.55,0.0066038010686127
209.57,0.0070448958507463
209.6,0.0076078040509015
209.62,0.0082391250479342
209.65,0.0088310231671279
209.68,0.0092367692687768
209.7,0.0093807172657475
209.72,0.0092408338750123
209.75,0.008856656006849
209.78,0.0082685813310099
209.8,0.0076373013649988
209.82,0.0070705556845606
209.85,0.0066205217591847
209.88,0.0063141103993818
209.9,0.0060884029277909
209.93,0.0059443321663791
209.95,0.005916145403768
209.97,0.005825950157671
210.0,0.0062386004094242
210.03,0.0070413500944543
210.05,0.0091405097409694
210.07,0.0138428634925512
210.1,0.0211135703783137
210.12,0.0305948929391893
210.15,0.0415630385084359
210.18,0.0518180513079084
210.2,0.0595516383497753
210.22,0.0635709649282282
210.25,0.0628973519802972
210.28,0.0569320282681548
210.3,0.0477810119097202
210.32,0.037497892390991
210.35,0.0274158023438893
210.38,0.0190423811191483
210.4,0.0131235178561888
210.43,0.0090851328846127
210.45,0.0069480645176265
210.47,0.0063890503679844
210.5,0.0062359203044062
210.53,0.0060903453570097
210.55,0.006121026279936
210.57,0.0060829162070031
210.6,0.006075080596373
210.62,0.0060891486501773
210.65,0.0060996260670755
210.68,0.0061183047119909
210.7,0.0061523629480679
210.72,0.0061997184274873
210.75,0.0062559919102531
210.78,0.0063114443406814
210.8,0.0063586683987716
210.82,0.006385385556005
210.85,0.0063863586109074
210.88,0.0063614350351157
210.9,0.0063169981288805
210.93,0.0062636417968277
210.95,0.0062088045547404
210.97,0.0061610644306193
211.0,0.0061264293706759
211.03,0.0061002787138287
211.05,0.0060772246315634
211.07,0.006059002491973
211.1,0.0060496561510511
211.12,0.0060057207528151
211.15,0.005955283064366
211.18,0.0061478908530859
211.2,0.0066968559187107
211.22,0.0076026356585441
211.25,0.0092152980074631
211.28,0.0117325189961122
211.3,0.0149807085546645
211.32,0.0184495204140657
211.35,0.0215572851038473
211.38,0.0238481146422258
211.4,0.0247549330819014
211.43,0.0240506078978961
211.45,0.0218529131449937
211.47,0.0185825050535152
211.5,0.0150496364457856
211.53,0.011882306073637
211.55,0.0093668860557693
211.57,0.0075751811165781
211.6,0.0065436805613914
211.62,0.0061966367630341
211.65,0.0060905184149673
211.68,0.0060132062993506
211.7,0.0060149380525825
211.72,0.0060535001240004
211.75,0.0060621121316959
211.78,0.0060881826982424
211.8,0.0061208956895552
211.82,0.0061958869469349
211.85,0.0063210519703412
211.88,0.0064940282789929
211.9,0.0067149608147389
211.93,0.006948941802181
211.95,0.0071564589637383
211.97,0.0073065608158624
212.0,0.0073547575251171
212.03,0.0073065608158624
212.05,0.0071564538935434
212.07,0.006948931239275
212.1,0.0067149358299452
212.12,0.0064939190256823
212.15,0.006320687432718
212.18,0.0061953628296222
212.2,0.006120580975986
212.22,0.0060893572605292
212.25,0.0060720091192558
212.28,0.0060801251867773
212.3,0.0060941157792708
212.32,0.0061346508137478
212.35,0.0062112291594931
212.38,0.0063235985977842
212.4,0.0064818462250161
212.43,0.0066717723970488
212.45,0.0068648356254138
212.47,0.0070354269801146
212.5,0.0071377888630402
212.53,0.0071642383797084
212.55,0.0070962526059115
212.57,0.0069567533763316
212.6,0.0067680789368298
212.62,0.0065642328498815
212.65,0.0063863814737306
212.68,0.0062478122042744
212.7,0.0061551479314756
212.72,0.0061091000404828
212.75,0.0060853420523574
212.78,0.0060840491617402
212.8,0.0060856958421261
212.82,0.0060855088747787
212.85,0.0060863987789268
212.88,0.0060876934597159
212.9,0.0060881361441433
212.93,0.0060882190258032
212.95,0.0060882602270148
212.97,0.0060882825523854
213.0,0.0060882868397174
213.03,0.0060882874043772
213.05,0.0060882876019466
213.07,0.0060882876216862
213.1,0.0060882876264571
213.12,0.00608828762769
213.15,0.0060882876277819
213.18,0.0060882876277287
213.2,0.0060882876274362
213.22,0.0060882876238301
213.25,0.006088287592404
213.28,0.0060882874977191
213.3,0.0060882867290826
213.32,0.0060882848801752
213.35,0.0060882800433079
213.38,0.0060882493899283
213.4,0.0060881311412163
213.43,0.0060879826777266
213.45,0.006087802539584
213.47,0.0060869145372769
213.5,0.0060867161526471
213.53,0.0060857913796553
213.55,0.0060865439767208
213.57,0.0060985698514
213.6,0.0061252622715282
213.62,0.0061666453377886
213.65,0.0062307248663147
213.68,0.0063171669053402
213.7,0.0064151788192559
213.72,0.0065138034990862
213.75,0.0065947276121522
213.78,0.0066346240368045
213.8,0.0066327121038691
213.82,0.0065894118414354
213.85,0.0065112130050682
213.88,0.0064123648235358
213.9,0.0063147806885353
213.93,0.0062308160734872
213.95,0.0061670543795169
213.97,0.0061282014690447
214.0,0.006106544377577
214.03,0.0060933320811247
214.05,0.0060891504965733
214.07,0.0060859836551932
214.1,0.0060854002236423
214.12,0.0060850838833855
214.15,0.0060843001509687
214.18,0.006091368737352
214.2,0.0061102324279496
214.22,0.0061408278129324
214.25,0.0061939164692102
214.28,0.006275286400757
214.3,0.0063791137343173
214.32,0.0064891680418137
214.35,0.0065871408635878
214.38,0.0066588260018033
214.4,0.0066867746530397
214.43,0.0066640019196444
214.45,0.0065941906879027
214.47,0.0064906354876639
214.5,0.0063786151088177
214.53,0.0062777427646471
214.55,0.0061970585159288
214.57,0.0061390022240075
214.6,0.0061050247136018
214.62,0.0060929701369719
214.65,0.006088938814932
214.68,0.0060860960847678
214.7,0.0060859899945776
214.72,0.0060873030346436
214.75,0.0060876833768413
214.78,0.0060881111205491
214.8,0.0060882400073608
214.82,0.0060882565991347
214.85,0.0060882565639226
214.88,0.0060882078168273
214.9,0.0060880861270868
214.93,0.0060880849440484
214.95,0.0060883106762484
214.97,0.0060886420746159
215.0,0.0060899608113552
215.03,0.0060922602202831
215.05,0.006096385199254
215.07,0.0061027889490089
215.1,0.0061108238990457
215.12,0.0061197252904618
215.15,0.006128015027181
215.18,0.0061336859462712
215.2,0.0061356917717046
215.22,0.0061337453943063
215.25,0.0061283969255271
215.28,0.0061201582428537
215.3,0.0061112672030855
215.32,0.0061032019022987
215.35,0.006096727099396
215.38,0.0060924903648794
215.4,0.0060900387609821
215.43,0.0060885265363669
215.45,0.0060879610148333
215.47,0.006088061671658
215.5,0.0060881769537703
215.53,0.0060882083229198
215.55,0.0060882625546863
215.57,0.0060882735607066
215.6,0.0060882809701205
215.62,0.0060882861317362
215.65,0.0060882873438539
215.68,0.0060882874932243
215.7,0.0060882874448137
215.72,0.0060882865030096
215.75,0.0060882809500167
215.78,0.0060882695500731
215.8,0.0060882053747165
215.82,0.0060881058910061
215.85,0.0060879442054294
215.88,0.0060871296404791
215.9,0.0060851636999394
215.93,0.0060847554413379
215.95,0.0060874283527972
215.97,0.0060906986408284
216.0,0.0061093895148096
216.03,0.0061429175327211
216.05,0.0062075007231404
216.07,0.0063164236523265
216.1,0.0064610407976569
216.12,0.0066293861499147
216.15,0.0067976609889065
216.18,0.0069269487990348
216.2,0.0069936074493196
216.22,0.0069873988078937
216.25,0.0069105706611576
216.28,0.0067674399983814
216.3,0.0065993452921468
216.32,0.0064374430778286
216.35,0.0062990160301557
216.38,0.0062004627931271
216.4,0.0061392055309356
216.43,0.0061003764926779
216.45,0.0060838640004669
216.47,0.0060839556368408
216.5,0.0060858281924212
216.53,0.0060862835619513
216.55,0.0060876046879935
216.57,0.0060878722084559
216.6,0.0060880789651083
216.62,0.0060882376332474
216.65,0.0060882778732674
216.68,0.0060882841336275
216.7,0.0060882864943384
216.72,0.0060882874651373
216.75,0.0060882875836995
216.78,0.0060882876228669
216.8,0.0060882876273471
216.82,0.0060882876277118
216.85,0.0060882876277859
216.9,0.0060882876277973
216.93,0.0060882876277743
216.95,0.0060882876276452
216.97,0.0060882876258737
217.0,0.0060882876190262
217.03,0.0060882875462635
217.05,0.006088286988864
217.07,0.0060882854828171
217.1,0.0060882810057534
217.12,0.0060882490987712
217.15,0.0060881037322128
217.18,0.0060878735672445
217.2,0.0060874824993638
217.22,0.0060854966496304
217.25,0.006080421423062
217.28,0.0060785919051168
217.3,0.0060728322703535
217.32,0.0060900929814867
217.35,0.0061434033402985
217.38,0.0062293334386476
217.4,0.0063966064137019
217.43,0.0066976215744743
217.45,0.0071162000952654
217.47,0.0076230374983901
217.5,0.0081412233403379
217.53,0.008613034363061
217.55,0.008927044677453
217.57,0.0090070068149314
217.6,0.0088364571954458
217.62,0.0084485821223913
217.65,0.0079416588733557
217.68,0.0074179403220746
217.7,0.0069389354908911
217.72,0.0065680007370452
217.75,0.0063181084827826
217.78,0.0061966667053517
217.8,0.006142721916152
217.82,0.0061100714384642
217.85,0.0061030481575585
217.88,0.0061105910536317
217.9,0.0061118595976143
217.93,0.0061077264883511
217.95,0.0061029081276955
217.97,0.0060982906690054
218.0,0.0060942779885135
218.03,0.0060913026930685
218.05,0.0060896122714926
218.07,0.006088546463997
218.1,0.0060881277205822
218.12,0.0060881712932794
218.15,0.0060882320172704
218.18,0.0060882356713391
218.2,0.0060882541917342
218.22,0.0060882770543094
218.25,0.0060882824696616
218.28,0.0060882864281479
218.3,0.0060882873991982
218.32,0.0060882875470299
218.35,0.0060882876017812
218.38,0.0060882876241308
218.4,0.0060882876273759
218.43,0.0060882876276994
218.45,0.0060882876277685
218.47,0.0060882876276345
218.5,0.0060882876269783
218.53,0.0060882876191736
218.55,0.0060882875514935
218.57,0.0060882873470661
218.6,0.0060882866721619
218.62,0.0060882813312604
218.65,0.0060882534740082
218.68,0.0060882017611234
218.7,0.0060880962197779
218.72,0.0060875193386972
218.75,0.0060857614365287
218.78,0.0060843841678578
218.8,0.0060796220882223
218.82,0.006081008041861
218.85,0.006093653609618
218.88,0.0061110051886525
218.9,0.0061575542469085
218.93,0.0062876450411714
218.95,0.0065108624902895
218.97,0.0068168493855824
219.0,0.0072206385234539
219.03,0.0076895833368387
219.05,0.0081780285422808
219.07,0.0086106626385631
219.1,0.008921590462248
219.12,0.0090765975870879
219.15,0.0090590429762116
219.18,0.0088725893759635
219.2,0.0085372945712147
219.22,0.0081095414764374
219.25,0.0076621461649848
219.28,0.0072306252112117
219.3,0.0068596701953646
219.32,0.006554003182423
219.35,0.0063361188008976
219.38,0.0062128092031047
219.4,0.0061420206989035
219.43,0.0060953065467924
219.45,0.0060779939138684
219.47,0.0060814350769551
219.5,0.0060849219874676
