Wavelength (nm),Normalized
200.08,0.000701278636984
200.1,0.000701277872632
200.13,0.0007012773523863
200.15,0.0007012770762467
200.18,0.0007012770442134
200.2,0.0007012772562862
200.23,0.0007012756673348
200.25,0.0007012618555146
200.28,0.0007012268037803
200.3,0.0007011317582997
200.33,0.0007005254899685
200.35,0.0006995303407974
200.38,0.0006950087670545
200.4,0.0006905573210507
200.42,0.0006750884583295
200.45,0.0006757266086492
200.47,0.0006770596362807
200.5,0.000770512074902
200.52,0.0009583728620744
200.55,0.001368421212448
200.57,0.0020009156713428
200.6,0.0028474102839158
200.62,0.0038276655461034
200.65,0.0047262267133342
200.67,0.0053729193424542
200.7,0.0056861893244015
200.72,0.0055160201848754
200.75,0.0049704305755099
200.77,0.0041025755458737
200.79,0.0031657066110553
200.82,0.002276976240879
200.84,0.0015835839512237
200.87,0.0011251778335353
200.89,0.0008327000532801
200.92,0.000696734539134
200.94,0.0006778226806065
200.97,0.0006700238015985
200.99,0.0006869084871457
201.02,0.0006915646499476
201.04,0.0006945921261646
201.07,0.0006909130843303
201.09,0.0006834223528214
201.12,0.0006430539820307
201.14,0.000616719185617
201.17,0.000531705903895
201.19,0.000633629606682
201.21,0.0008669272148531
201.24,0.0018253935317052
201.26,0.0035521505032427
201.29,0.0065277973349053
201.31,0.0106332889796914
201.34,0.0153584882085096
201.36,0.0201272638362601
201.39,0.0237215772282479
201.41,0.0255615476465541
201.44,0.0251068250552536
201.46,0.0223838472920316
201.49,0.0183329643763797
201.51,0.0134600070102754
201.54,0.0089729703633538
201.56,0.0053413844569888
201.58,0.0028429265073193
201.61,0.0015272418041685
201.63,0.0008149282638957
201.66,0.0006766391763949
201.68,0.0005804735597887
201.71,0.0005950302409608
201.73,0.0006609315606558
201.76,0.0006790077546495
201.78,0.0006953602111367
201.81,0.0006988087286597
201.83,0.0007007986478508
201.86,0.0007011196891693
201.88,0.0007012551036356
201.91,0.0007012717683106
201.93,0.0007012771484719
201.95,0.0007012776518745
201.98,0.0007012777761827
202.0,0.0007012777449051
202.03,0.0007012775903194
202.05,0.0007012759563329
202.08,0.0007012709929191
202.1,0.000701231397801
202.13,0.0007011392099914
202.15,0.0007005759844628
202.18,0.0006996171373227
202.2,0.0006979187171868
202.23,0.0006895319600033
202.25,0.0006827985834671
202.28,0.0006597743149794
202.3,0.000671237501268
202.32,0.0006938415166424
202.35,0.0008740039735601
202.37,0.0011980438905903
202.4,0.0018642748156773
202.42,0.0028216597142268
202.45,0.0041737247214951
202.47,0.0057838576849012
202.5,0.0076379471447996
202.52,0.0095791287096388
202.55,0.011472848781421
202.57,0.0131595555606201
202.6,0.0143616470828528
202.62,0.0148387140075507
202.65,0.0146955291287733
202.67,0.0136459262436953
202.7,0.0119761219769559
202.72,0.0097552173701011
202.74,0.007405025256828
202.77,0.0051851242308147
202.79,0.0033627571695047
202.82,0.0020884249215513
202.84,0.0012247397366967
202.87,0.0007804656843683
202.89,0.0006712578971158
202.92,0.0006215046131048
202.94,0.0006599438966973
202.97,0.0006720379949947
202.99,0.0006916078377802
203.02,0.0006964782541864
203.04,0.0007001360457215
203.07,0.0007008386901427
203.09,0.0007012007096936
203.11,0.0007012541203554
203.14,0.0007012747042383
203.16,0.0007012770258511
203.19,0.000701277717987
203.21,0.0007012777760249
203.24,0.0007012777879828
203.26,0.0007012777905471
203.29,0.0007012777906976
204.08,0.0007012777907224
204.1,0.0007012777907007
204.13,0.0007012777905732
204.15,0.0007012777898365
204.18,0.0007012777789284
204.2,0.0007012777343007
204.23,0.0007012772373747
204.25,0.0007012756325851
204.27,0.0007012619182562
204.3,0.000701227538217
204.32,0.0007010013161994
204.35,0.000700576979359
204.37,0.0006984205878656
204.4,0.0006956636822445
204.42,0.0006847816490897
204.45,0.0006788421698861
204.47,0.0006599499112689
204.5,0.0006919366362063
204.52,0.000808014015068
204.55,0.0010050514067011
204.57,0.0014414288427512
204.6,0.0021213781464934
204.62,0.003079422637066
204.64,0.0042412868892852
204.67,0.0053780132528769
204.69,0.0063463539151703
204.72,0.006851741838924
204.74,0.0068773729275892
204.77,0.0063400157064323
204.79,0.0053543753198353
204.82,0.0041900994109383
204.84,0.0030100030043557
204.87,0.0020394072918032
204.89,0.0013501944140017
204.92,0.0009162824925964
204.94,0.0007388052714071
204.97,0.000640295706981
204.99,0.0007050558972305
205.02,0.0008268470805476
205.04,0.0011806878544581
205.06,0.0017475475324664
205.09,0.002616802327677
205.11,0.0037316929645744
205.14,0.0049137764388134
205.16,0.0060211991382232
205.19,0.0067459527651959
205.21,0.0069726589507621
205.24,0.006637249310632
205.26,0.0057850160793856
205.29,0.0046748379212272
205.31,0.0034830193766809
205.34,0.0024635388566426
205.36,0.0018281138221725
205.39,0.0015988308951753
205.41,0.0018987454458877
205.43,0.0025602497629231
205.46,0.0035188823585917
205.48,0.0045577566021846
205.51,0.0054400076198938
205.53,0.0060246634903239
205.56,0.0061251317554674
205.58,0.005736000100485
205.61,0.0049685378900191
205.63,0.0039450865587728
205.66,0.0029225549587592
205.68,0.0020245493652171
205.71,0.001347938672777
205.73,0.0009553665693686
205.76,0.000726936144519
205.78,0.0007736239428557
205.8,0.0009644957188723
205.83,0.0014977876346074
205.85,0.0023208578225079
205.88,0.0034879969434371
205.9,0.0048980547305332
205.93,0.0062858045999865
205.95,0.007458797693494
205.98,0.0080977451585245
206.0,0.0080976629896428
206.03,0.0074587984404839
206.05,0.0062866871684749
206.08,0.0049001976576184
206.1,0.0034920821187885
206.13,0.0023341863994582
206.15,0.0015159428303432
206.18,0.000998616991275
206.2,0.0007786450591192
206.22,0.0006686291148826
206.25,0.0006724040641049
206.27,0.0006721133402669
206.3,0.0006905127252168
206.32,0.0006943115168315
206.35,0.0006976763358097
206.37,0.0007003790858889
206.4,0.0007009176633035
206.42,0.0007012109448439
206.45,0.0007012563253779
206.47,0.0007012748018475
206.5,0.0007012770103236
206.52,0.0007012777089161
206.55,0.0007012777732261
206.57,0.0007012777893413
206.59,0.0007012777904816
206.62,0.0007012777907087
207.9,0.0007012777906878
207.93,0.0007012777904946
207.95,0.0007012777871212
207.98,0.0007012777711065
208.0,0.0007012776915928
208.03,0.0007012767091988
208.05,0.0007012732845314
208.08,0.0007012413026581
208.1,0.00070115349845
208.12,0.0007005163077123
208.15,0.0006991706346867
208.17,0.0006915615455845
208.2,0.0006798878615021
208.22,0.0006281116267925
208.25,0.0005805553375316
208.27,0.0004115475039911
208.3,0.0004308636277021
208.32,0.0004435894193386
208.35,0.0014935409824636
208.37,0.0040251722165452
208.4,0.0080856440726183
208.42,0.0150418438867366
208.45,0.024678358036119
208.47,0.0362259031864349
208.49,0.0484935454158483
208.52,0.0584793951500811
208.54,0.0650020879673081
208.57,0.0656838282389354
208.59,0.0614182585776347
208.62,0.0523267162770253
208.64,0.0402065018286441
208.67,0.0280468183049305
208.69,0.017311034850172
208.72,0.0093079794675352
208.74,0.0044381916539938
208.77,0.0015965525911226
208.79,0.0007213765083447
208.82,0.0003034423872381
208.84,0.0004685504475905
208.87,0.0005179633901216
208.89,0.0006359227861356
208.91,0.0006664604306975
208.94,0.0006923408192777
208.96,0.0006976220609134
208.99,0.0007006042472575
209.01,0.0007010500222159
209.04,0.0007012081463816
209.06,0.0007012686950523
209.09,0.0007012755131696
209.11,0.0007012775649649
209.14,0.0007012777441906
209.16,0.0007012777872198
209.19,0.0007012777901283
209.21,0.0007012777906908
209.24,0.0007012777907201
209.26,0.0007012777907247
209.28,0.0007012777907249
209.31,0.0007012777907249
209.33,0.0007012777907249
209.36,0.0007012777907249
209.38,0.0007012777907249
209.41,0.0007012777907249
209.43,0.0007012777907249
209.46,0.0007012777907249
209.48,0.0007012777907249
209.51,0.0007012777907249
209.53,0.0007012777907249
209.56,0.0007012777907249
209.58,0.0007012777907249
209.61,0.0007012777907249
209.63,0.0007012777907249
209.65,0.0007012777907249
209.68,0.0007012777907249
209.7,0.0007012777907249
209.73,0.0007012777907249
209.75,0.0007012777907249
209.78,0.0007012777907249
209.8,0.0007012777907249
209.83,0.0007012777907249
209.85,0.0007012777907249
209.88,0.0007012777907249
209.9,0.0007012777907249
209.93,0.0007012777907249
209.95,0.0007012777907249
209.98,0.0007012777907248
210.0,0.0007012777907242
211.48,0.0007012777907196
211.51,0.0007012777906353
211.53,0.0007012777902109
211.56,0.0007012777841161
211.58,0.0007012777592703
211.6,0.0007012774806279
211.63,0.0007012765683572
211.65,0.0007012685574983
211.68,0.0007012477966252
211.7,0.0007011047641427
211.73,0.0007008193807791
211.75,0.0006992704092034
211.78,0.0006970402495926
211.8,0.0006874216252918
211.83,0.0006794989194508
211.85,0.000677884298289
211.88,0.0006539291868054
211.9,0.0007062928065091
211.93,0.0008088462398031
211.95,0.0011967464869002
211.97,0.001874707070271
212.0,0.0030655636973338
212.02,0.0047261837987683
212.05,0.0067205734121047
212.07,0.0088484004712295
212.1,0.0106076309993923
212.12,0.0117385213181617
212.15,0.0119282623383177
212.17,0.0111371888996967
212.2,0.0096014132838494
212.22,0.0075585212097734
212.25,0.0055166450418712
212.27,0.0037989288472052
212.3,0.0026290325868002
212.32,0.0022245039773679
212.34,0.0024045733466534
212.37,0.0031848285050095
212.39,0.0042348403670213
212.42,0.0053587388609482
212.44,0.006302965757676
212.47,0.0068219294746654
212.49,0.0068347310129386
212.52,0.0063275148315671
212.54,0.005391219286145
212.57,0.0042727344142896
212.59,0.0031270820450793
212.62,0.0021650607860549
212.64,0.0014669351579695
212.67,0.0010106080269039
212.69,0.0007995966086825
212.72,0.0006881168236897
212.74,0.0006796785810872
212.76,0.000674390320239
212.79,0.0006897672933089
212.81,0.0006940249253415
212.84,0.0006992124399337
212.86,0.0007002388508515
212.89,0.0007008286103044
212.91,0.0007011855287556
212.94,0.0007012456339752
212.96,0.0007012727569823
212.99,0.0007012763518109
213.01,0.0007012776182938
213.04,0.0007012777499733
213.06,0.00070127778698
213.09,0.0007012777899906
213.11,0.0007012777906731
213.13,0.0007012777907165
213.16,0.0007012777907245
213.18,0.0007012777907249
213.21,0.0007012777907249
213.23,0.0007012777907249
213.26,0.0007012777907249
213.28,0.0007012777907249
213.31,0.0007012777907249
213.33,0.0007012777907249
213.36,0.0007012777907249
213.38,0.0007012777907249
213.41,0.0007012777907249
213.43,0.0007012777907249
213.46,0.0007012777907249
213.48,0.0007012777907249
213.5,0.0007012777907249
213.53,0.0007012777907249
213.55,0.0007012777907249
213.58,0.0007012777907249
213.6,0.0007012777907249
213.63,0.0007012777907249
213.65,0.0007012777907249
213.68,0.0007012777907249
213.7,0.0007012777907249
213.73,0.0007012777907249
213.75,0.0007012777907249
213.78,0.0007012777907249
213.8,0.0007012777907249
213.83,0.0007012777907249
213.85,0.0007012777907249
213.88,0.0007012777907249
213.9,0.0007012777907249
213.92,0.0007012777907249
213.95,0.0007012777907249
213.97,0.0007012777907249
214.0,0.0007012777907249
214.02,0.0007012777907249
214.05,0.0007012777907249
214.07,0.0007012777907247
214.1,0.0007012777907235
214.12,0.0007012777906996
214.15,0.0007012777905762
214.17,0.0007012777899073
214.2,0.0007012777806326
214.22,0.0007012777445149
214.25,0.0007012773592487
214.27,0.0007012761510513
214.29,0.0007012660003505
214.32,0.0007012407466279
214.34,0.0007010729911413
214.37,0.0007007517086975
214.39,0.000699056364656
214.42,0.0006967302571686
214.44,0.0006868753103861
214.47,0.0006794717059358
214.49,0.0006531345258473
214.52,0.000666505907358
214.54,0.0007516013058592
214.57,0.0008839466345831
214.59,0.0012905790396647
214.62,0.0019741613676795
214.64,0.0031418569810948
214.66,0.0047481523589298
214.69,0.0066589439496215
214.71,0.0086819039072203
214.74,0.0103387333340452
214.76,0.0114517649933679
214.79,0.0116365889529443
214.81,0.0108900491807274
214.84,0.0094197849467811
214.86,0.0074507520527439
214.89,0.0054537544738014
214.91,0.0036669415327807
214.94,0.0023054635572213
214.96,0.0014462940510315
214.99,0.0009263499883194
215.01,0.0007416908901463
215.04,0.000648130198692
215.06,0.0006651332306976
215.08,0.0006688298442988
215.11,0.0006890309448915
215.13,0.0006943330696791
215.16,0.0006994615766293
215.18,0.0007004335078952
215.21,0.0007009348929424
215.23,0.0007012121649134
215.26,0.0007012552380573
215.28,0.0007012677229374
215.31,0.0007012542441492
215.33,0.0007012095807006
215.36,0.0007008943898983
215.38,0.0007003002863518
215.41,0.0006971638492316
215.43,0.0006928500900555
215.45,0.0006740635923448
215.48,0.0006587030278795
215.5,0.0005997767393423
215.53,0.0006093910122056
215.55,0.0005959042689352
215.58,0.0009534920581404
215.6,0.0016038422408117
215.63,0.0033093494132755
215.65,0.0060399311781832
215.68,0.0103871156788194
215.7,0.0160808703295081
215.73,0.0227333096784062
215.75,0.029304820148733
215.78,0.035110012423524
215.8,0.0385215971624186
215.82,0.039399403590618
215.85,0.0369558093625322
215.87,0.0322758919104366
215.9,0.025750252218316
215.92,0.0189950416346175
215.95,0.0127017165277338
215.97,0.0076850742478575
216.0,0.0041181579778994
216.02,0.0021382692337435
216.05,0.0009878925030535
216.07,0.0006855943682882
216.1,0.0005278505713394
216.12,0.0006054252148681
216.15,0.000625936563655
216.17,0.0006743328749467
216.2,0.0006866065314638
216.22,0.0006973761390037
216.24,0.0006996116957278
216.27,0.0007009404334683
216.29,0.0007011613241157
216.32,0.0007012602672493
216.34,0.000701272707723
216.37,0.0007012764354146
216.39,0.0007012776425895
216.42,0.0007012777578137
216.44,0.0007012777879407
216.47,0.0007012777902078
216.49,0.000701277790691
216.52,0.0007012777907196
216.54,0.0007012777907247
216.57,0.0007012777907249
216.59,0.0007012777907249
216.61,0.0007012777907249
216.64,0.0007012777907249
216.66,0.0007012777907249
216.69,0.0007012777907249
216.71,0.0007012777907249
216.74,0.0007012777907248
216.76,0.0007012777907232
216.79,0.0007012777907142
216.81,0.0007012777905673
216.84,0.0007012777898991
216.86,0.0007012777866842
216.89,0.0007012777480924
216.91,0.0007012776160575
216.94,0.0007012763934436
216.96,0.0007012730338316
216.98,0.0007012483389666
217.01,0.0007011949263857
217.03,0.0007008819347765
217.06,0.0007003730226356
217.08,0.0006979738960112
217.11,0.0006953851163257
217.13,0.0006853710312117
217.16,0.0006822526567655
217.18,0.0006697009553936
217.21,0.0007087469273553
217.23,0.0008289898167768
217.26,0.0010225417273283
217.28,0.0014377723237808
217.31,0.0020718153523598
217.33,0.0029825417532488
217.35,0.0041073135156407
217.38,0.0052668223221672
217.4,0.0063314966608751
217.43,0.007007870184043
217.45,0.0072556728564895
217.48,0.0069339872870771
217.5,0.006118306135863
217.53,0.0050252788642838
217.55,0.0038092570647898
217.58,0.0027163429621704
217.6,0.0018529189455038
217.63,0.0012483223009844
217.65,0.0009214839826275
217.68,0.0007357161012997
217.7,0.0006924885836329
217.73,0.0006701673425299
217.75,0.000685083144032
217.77,0.0006891565033321
217.8,0.0006971409787896
217.82,0.0006991156094404
217.85,0.0007007534180841
217.87,0.0007010494038481
217.9,0.0007011897882975
217.92,0.0007012620439325
217.95,0.0007012728023407
217.97,0.0007012770996411
218.0,0.000701277608881
218.02,0.0007012777711792
218.05,0.0007012777864273
218.07,0.0007012777903662
218.1,0.0007012777906588
218.12,0.0007012777907206
218.14,0.0007012777907243
218.17,0.0007012777907249
218.19,0.0007012777907249
218.22,0.0007012777907249
218.24,0.0007012777907249
218.27,0.0007012777907249
218.29,0.0007012777907248
218.32,0.0007012777907242
218.34,0.0007012777907128
218.37,0.0007012777906535
218.39,0.0007012777903324
218.42,0.0007012777858537
218.44,0.000701277768261
218.47,0.0007012775776662
218.49,0.0007012769691642
218.51,0.0007012717257396
218.54,0.0007012582993961
218.56,0.0007011659490016
218.59,0.0007009809994146
218.61,0.0006999609633122
218.64,0.0006984509781608
218.66,0.0006917076780413
218.69,0.0006855275475564
218.71,0.0006623830761408
218.74,0.0006625787850457
218.76,0.0006529947566803
218.79,0.0007802249411232
218.81,0.0011099909643736
218.84,0.0016334674691772
218.86,0.002626581507734
218.89,0.0040704248419895
218.91,0.0059919604621567
218.93,0.0082357638556128
218.96,0.0103800250645715
218.98,0.0121833481616417
219.01,0.0131106370638928
219.03,0.0131659666008669
219.06,0.0121695157773982
219.08,0.0103324343422734
219.11,0.0081247070095781
219.13,0.0058427955562665
219.16,0.0038941323280015
219.18,0.0024453260866654
219.21,0.0014694106636033
219.23,0.0009852937254224
219.26,0.0007170271764724
219.28,0.0006734248756675
219.3,0.000648619066973
219.33,0.0006758621877111
219.35,0.0006798758443884
219.38,0.0006873364819178
219.4,0.0006721805045207
219.43,0.0006630430204778
219.45,0.0006248538281889
219.48,0.0006623195141371
219.5,0.0007291608740873
219.53,0.0011183059341757
219.55,0.0019383957895081
219.58,0.0031859434246856
219.6,0.0051751352960125
219.63,0.0078179815923104
219.65,0.0108908484598494
219.67,0.0140873841630259
219.7,0.0166524370705791
219.72,0.0183235616418494
219.75,0.0184883307918684
219.77,0.0174018658259774
219.8,0.0150577146194885
219.82,0.0118983696726519
219.85,0.0086740515500896
219.87,0.0057363067398117
219.9,0.0035143537327255
219.92,0.0021083713354139
219.95,0.0014996623923422
219.97,0.0017767302589943
220.0,0.0025472259951744
220.02,0.0040800715433994
220.05,0.0060974725894041
220.07,0.0084754344232359
220.09,0.0109214134163654
220.12,0.0128857651118629
220.14,0.0141616424223832
220.17,0.0142889220201289
220.19,0.0134636588568244
220.22,0.01167961183241
220.24,0.0092812956460976
220.27,0.0068276405854381
220.29,0.0046074712033271
220.32,0.0028863176415681
220.34,0.0017679316338171
220.37,0.0010700688154299
220.39,0.0007975762017494
220.42,0.0006534719291921
220.44,0.000661061505309
220.46,0.0006594894943555
220.49,0.0006845393578055
220.51,0.000691117417445
220.54,0.0006984586982146
220.56,0.000699874360207
220.59,0.0007006717631284
220.61,0.0007011526159645
220.64,0.0007012335956931
220.66,0.0007012706999257
220.69,0.0007012757101857
220.71,0.0007012775302921
220.74,0.0007012777267948
220.76,0.0007012777844741
220.79,0.0007012777894364
220.81,0.0007012777906264
220.83,0.0007012777907078
220.86,0.0007012777907239
220.88,0.0007012777907248
220.91,0.0007012777907249
220.93,0.0007012777907249
220.96,0.0007012777907249
220.98,0.0007012777907249
221.01,0.0007012777907249
221.03,0.0007012777907249
221.06,0.0007012777907249
221.08,0.0007012777907249
221.11,0.0007012777907249
221.13,0.0007012777907249
221.16,0.0007012777907249
221.18,0.0007012777907249
221.21,0.0007012777907249
221.23,0.0007012777907249
221.25,0.0007012777907249
221.28,0.0007012777907249
221.3,0.0007012777907249
221.33,0.0007012777907249
221.35,0.0007012777907249
221.38,0.0007012777907249
221.4,0.0007012777907249
221.43,0.0007012777907249
221.45,0.0007012777907249
221.48,0.0007012777907249
221.5,0.0007012777907249
221.53,0.0007012777907249
221.55,0.0007012777907249
221.58,0.0007012777907249
221.6,0.0007012777907249
221.62,0.0007012777907249
221.65,0.0007012777907249
221.67,0.0007012777907249
221.7,0.0007012777907249
221.72,0.0007012777907249
221.75,0.0007012777907249
221.77,0.0007012777907249
221.8,0.0007012777907249
221.82,0.0007012777907249
221.85,0.0007012777907249
221.87,0.0007012777907249
221.9,0.0007012777907249
221.92,0.0007012777907249
221.95,0.0007012777907249
221.97,0.0007012777907249
221.99,0.0007012777907249
222.02,0.0007012777907249
222.04,0.0007012777907249
222.07,0.0007012777907249
222.09,0.0007012777907249
222.12,0.0007012777907249
222.14,0.0007012777907249
222.17,0.0007012777907249
222.19,0.0007012777907249
222.22,0.0007012777907249
222.24,0.0007012777907249
222.27,0.0007012777907249
222.29,0.0007012777907249
222.32,0.0007012777907249
222.34,0.0007012777907249
222.36,0.0007012777907249
222.39,0.0007012777907249
222.41,0.0007012777907249
222.44,0.0007012777907249
222.46,0.0007012777907249
222.49,0.0007012777907249
222.51,0.0007012777907249
222.54,0.0007012777907249
222.56,0.0007012777907249
222.59,0.0007012777907249
222.61,0.0007012777907249
